Data from NQ51A06081_08-38-17-454.txt Node
Date: Tue Dec 18 08:38:17 IST 2018
User: han3-2
Spectrometer: NQ51A0608
Trigger mode: 0
Integration Time (sec): 4.000000E-2
Scans to average: 20
Nonlinearity correction enabled: false
Boxcar width: 2
Storing dark spectrum: false
XAxis mode: Wavelengths
Number of Pixels in Spectrum: 512
>>>>>Begin Spectral Data<<<<<
898.623	2854.7
900.238	2862.13
901.852	2868.71
903.467	2883.52
905.081	2895.65
906.696	2909.63
908.31	2924.19
909.925	2938.51
911.54	2956.07
913.154	2980.08
914.769	3006.28
916.384	3037.95
917.998	3077.85
919.613	3117.69
921.228	3156.94
922.842	3194.41
924.457	3228.59
926.072	3256.74
927.686	3283.87
929.301	3306.1
930.916	3327.78
932.53	3348.5
934.145	3367.59
935.76	3386.39
937.374	3402.65
938.989	3418.54
940.604	3432.38
942.218	3446.4
943.833	3460.2
945.448	3475.16
947.062	3488.74
948.677	3499.5
950.291	3508.69
951.906	3515.02
953.521	3522.14
955.135	3529.84
956.75	3536.82
958.364	3542.36
959.979	3548.09
961.593	3554.4
963.208	3557.35
964.822	3562.45
966.437	3570.08
968.051	3577.32
969.666	3583.7
971.28	3593.11
972.895	3601.96
974.509	3609.09
976.123	3616.04
977.738	3623.94
979.352	3631.66
980.966	3641.22
982.58	3653.8
984.194	3667.16
985.809	3680.35
987.423	3691.43
989.037	3703.66
990.651	3715.96
992.265	3726.69
993.879	3740.81
995.493	3754.37
997.107	3768.68
998.721	3784.42
1000.335	3799.3
1001.948	3812.44
1003.562	3829.72
1005.176	3843.85
1006.79	3858.52
1008.403	3877.01
1010.017	3892.47
1011.63	3907.57
1013.244	3925.7
1014.857	3942.21
1016.471	3957.43
1018.084	3977.16
1019.697	3995.16
1021.311	4011.33
1022.924	4027.67
1024.537	4042.82
1026.15	4055.98
1027.763	4069.96
1029.376	4088.41
1030.989	4102.74
1032.602	4119.54
1034.215	4132.88
1035.828	4150.61
1037.44	4158.78
1039.053	4170.71
1040.666	4182.48
1042.278	4195.71
1043.89	4203.89
1045.503	4218.72
1047.115	4231.22
1048.727	4244.39
1050.34	4258.24
1051.952	4275.81
1053.564	4284.65
1055.176	4298.93
1056.788	4306.79
1058.4	4317.8
1060.011	4322.78
1061.623	4334.27
1063.235	4336.83
1064.846	4348.79
1066.458	4353.85
1068.069	4361.44
1069.68	4366.93
1071.292	4375.86
1072.903	4374.32
1074.514	4379.93
1076.125	4382.28
1077.736	4386.11
1079.347	4388.95
1080.957	4401.82
1082.568	4406.78
1084.179	4415.04
1085.789	4421.7
1087.399	4429.42
1089.01	4429.94
1090.62	4440.46
1092.23	4447.87
1093.84	4456.44
1095.45	4463.19
1097.06	4476.14
1098.67	4480.03
1100.279	4491.22
1101.889	4501.41
1103.498	4516.86
1105.108	4525.03
1106.717	4537.52
1108.326	4542.88
1109.935	4551.98
1111.544	4551.18
1113.153	4559.16
1114.762	4568.04
1116.371	4582.52
1117.979	4591.69
1119.588	4611.63
1121.196	4623.27
1122.804	4635.34
1124.412	4641.76
1126.02	4660.36
1127.628	4669.76
1129.236	4684.17
1130.844	4693.84
1132.451	4710.76
1134.059	4714.74
1135.666	4728.94
1137.273	4737.01
1138.88	4752.02
1140.487	4758.62
1142.094	4779.32
1143.701	4792.82
1145.307	4812.74
1146.914	4822.19
1148.52	4840.93
1150.126	4849.74
1151.733	4862.53
1153.339	4868.62
1154.944	4881.29
1156.55	4887.08
1158.156	4896.14
1159.761	4901.26
1161.367	4914.48
1162.972	4929.43
1164.577	4950.2
1166.182	4963.42
1167.787	4983.87
1169.391	4998.27
1170.996	5013
1172.6	5025.47
1174.205	5046.69
1175.809	5059.38
1177.413	5079.81
1179.017	5093.68
1180.62	5110.37
1182.224	5122.72
1183.827	5137.11
1185.431	5142.34
1187.034	5155.8
1188.637	5159.5
1190.24	5164.71
1191.842	5170.21
1193.445	5186.98
1195.047	5192.23
1196.649	5202.29
1198.252	5207.18
1199.854	5216.57
1201.455	5218.05
1203.057	5229.5
1204.658	5228.1
1206.26	5233.83
1207.861	5235.87
1209.462	5239.7
1211.063	5239.74
1212.664	5262.66
1214.264	5277.38
1215.864	5294.63
1217.465	5304.06
1219.065	5322.4
1220.665	5324.41
1222.264	5342.46
1223.864	5347.35
1225.463	5363.37
1227.062	5370.41
1228.661	5391.81
1230.26	5391.92
1231.859	5409.09
1233.458	5411.85
1235.056	5418.42
1236.654	5407.48
1238.252	5407.94
1239.85	5398.76
1241.448	5403.26
1243.045	5401.51
1244.642	5410.6
1246.24	5412.72
1247.837	5417.35
1249.433	5413.7
1251.03	5415.04
1252.626	5403.3
1254.223	5404.5
1255.819	5404.33
1257.414	5412.82
1259.01	5412.48
1260.606	5432.08
1262.201	5437.9
1263.796	5450.01
1265.391	5450.21
1266.986	5461.46
1268.58	5460.29
1270.174	5472.61
1271.769	5471.73
1273.362	5477.89
1274.956	5473.99
1276.55	5478.16
1278.143	5470.16
1279.736	5474.23
1281.329	5470.26
1282.922	5480.73
1284.515	5481.72
1286.107	5494.63
1287.699	5497.37
1289.291	5514.23
1290.883	5514.52
1292.474	5526.64
1294.066	5526
1295.657	5536.93
1297.248	5534.66
1298.838	5549.65
1300.429	5550.01
1302.019	5560.34
1303.609	5559.46
1305.199	5566.31
1306.789	5554.01
1308.378	5556.04
1309.967	5544.77
1311.556	5549.74
1313.145	5546.5
1314.734	5560.93
1316.322	5563.55
1317.91	5583
1319.498	5584.37
1321.086	5600.44
1322.673	5597.18
1324.261	5603.52
1325.848	5594.36
1327.434	5602.96
1329.021	5597.75
1330.607	5614.01
1332.193	5613.03
1333.779	5621.01
1335.365	5606.1
1336.95	5602.36
1338.535	5585.13
1340.12	5584.71
1341.705	5575.43
1343.29	5578.79
1344.874	5569.62
1346.458	5569.74
1348.042	5552.93
1349.625	5546.36
1351.208	5527.27
1352.791	5517.64
1354.374	5497.42
1355.957	5490.23
1357.539	5458.32
1359.121	5440.86
1360.703	5422.66
1362.285	5418.82
1363.866	5410.68
1365.447	5423.14
1367.028	5425.16
1368.609	5428.01
1370.189	5419.38
1371.769	5410.11
1373.349	5378.31
1374.928	5345.87
1376.508	5279.4
1378.087	5205.42
1379.666	5130.18
1381.244	5080.91
1382.822	5028.61
1384.401	5002.75
1385.978	4970.93
1387.556	4943.59
1389.133	4894.87
1390.71	4853.11
1392.287	4795.53
1393.863	4750.6
1395.44	4695.19
1397.015	4648.38
1398.591	4601.82
1400.167	4563.75
1401.742	4512.59
1403.317	4469.21
1404.891	4432.41
1406.465	4398.97
1408.04	4370.63
1409.613	4349.84
1411.187	4323.74
1412.76	4298.03
1414.333	4274.29
1415.906	4253.28
1417.478	4239.44
1419.05	4228.8
1420.622	4219.75
1422.194	4205.57
1423.765	4196.03
1425.336	4182.01
1426.907	4170.01
1428.477	4156.75
1430.047	4148.79
1431.617	4140.45
1433.187	4133.7
1434.756	4129.92
1436.325	4128.98
1437.894	4126.41
1439.462	4122.83
1441.03	4121.66
1442.598	4118.28
1444.166	4110.76
1445.733	4111.87
1447.3	4109.51
1448.866	4105.15
1450.433	4103.57
1451.999	4109.02
1453.564	4106.56
1455.13	4109.35
1456.695	4109.54
1458.26	4110.34
1459.825	4104.67
1461.389	4099.58
1462.953	4095.44
1464.516	4101.49
1466.08	4104.7
1467.643	4112.98
1469.205	4117.21
1470.768	4121.98
1472.33	4126.6
1473.892	4132.52
1475.453	4141.8
1477.014	4155.7
1478.575	4168.65
1480.136	4175.58
1481.696	4188.12
1483.256	4204.25
1484.815	4219.58
1486.375	4235.34
1487.934	4252.59
1489.492	4265.1
1491.05	4271.47
1492.608	4284.03
1494.166	4293.77
1495.723	4313.67
1497.28	4331.65
1498.837	4348.35
1500.393	4361.12
1501.95	4374.78
1503.505	4384.25
1505.061	4405.28
1506.616	4425.17
1508.17	4440.12
1509.725	4458.53
1511.279	4470.49
1512.832	4475.3
1514.386	4486.81
1515.939	4507.71
1517.492	4524.06
1519.044	4543.4
1520.596	4559.5
1522.148	4570.15
1523.699	4582.24
1525.25	4602.89
1526.801	4620.13
1528.351	4639.82
1529.901	4659.77
1531.451	4671.04
1533	4678.98
1534.549	4699.11
1536.097	4716.71
1537.646	4732.92
1539.193	4749.29
1540.741	4765.59
1542.288	4768.64
1543.835	4779.66
1545.382	4791.78
1546.928	4812.79
1548.473	4828.03
1550.019	4844.68
1551.564	4851.18
1553.109	4860.65
1554.653	4862.16
1556.197	4876.35
1557.741	4890.91
1559.284	4911.13
1560.827	4924.94
1562.369	4941.13
1563.911	4942.07
1565.453	4948.24
1566.995	4953.56
1568.536	4963.56
1570.076	4965.47
1571.617	4971.81
1573.157	4971.19
1574.696	4977.19
1576.236	4977.52
1577.774	4990.79
1579.313	5001.92
1580.851	5020.87
1582.389	5028.23
1583.926	5038.52
1585.463	5040.33
1587	5051.9
1588.536	5054.41
1590.072	5059.69
1591.607	5061.97
1593.142	5067.25
1594.677	5062.53
1596.211	5065.98
1597.745	5065.8
1599.279	5072.48
1600.812	5070.05
1602.345	5076.49
1603.877	5070.47
1605.409	5070.02
1606.941	5062.41
1608.472	5065.63
1610.003	5057.15
1611.533	5059.95
1613.063	5054.2
1614.593	5057.12
1616.122	5047.08
1617.651	5047.2
1619.179	5038.08
1620.707	5037.23
1622.235	5028.16
1623.762	5028.23
1625.289	5015.37
1626.816	5005.85
1628.342	4984.67
1629.867	4966.41
1631.392	4941.46
1632.917	4917.46
1634.442	4877.35
1635.966	4836.08
1637.489	4773.94
1639.013	4697.97
1640.535	4601.65
1642.058	4509.92
1643.58	4398.29
1645.101	4286.22
1646.622	4163.31
1648.143	4047.39
1649.663	3915.28
1651.183	3797.16
1652.703	3677.11
1654.222	3569.28
1655.741	3463.29
1657.259	3372.66
1658.777	3283.97
1660.294	3206.24
1661.811	3133.39
1663.327	3068.32
1664.844	3009.13
1666.359	2958.75
1667.874	2910.44
1669.389	2871.92
1670.904	2836.11
1672.418	2803.36
1673.931	2769.93
1675.444	2742.78
1676.957	2713.56
1678.469	2688.27
1679.981	2665.7
1681.492	2648.07
1683.003	2630.22
1684.514	2612.57
1686.024	2595.88
1687.533	2578.94
1689.043	2561.14
1690.551	2546.23
1692.06	2533.96
1693.568	2524.46
1695.075	2514.51
1696.582	2506.6
1698.088	2496.5
1699.595	2487.5
1701.1	2476.35
1702.605	2467.58
1704.11	2461.96
1705.614	2457.25
