Data from Egg_NQ51A06081_19-51-53-227.txt Node
Date: Mon Jun 10 19:51:53 IDT 2019
User: han3-2
Spectrometer: NQ51A0608
Trigger mode: 0
Integration Time (sec): 5.000000E0
Scans to average: 3
Nonlinearity correction enabled: false
Boxcar width: 7
Storing dark spectrum: false
XAxis mode: Wavelengths
Number of Pixels in Spectrum: 512
>>>>>Begin Spectral Data<<<<<
898.623	4957.06
900.238	4977.97
901.852	4998.03
903.467	5023.67
905.081	5053.73
906.696	5085.75
908.31	5126.1
909.925	5172.26
911.54	5243.19
913.154	5318.67
914.769	5398.15
916.384	5478.62
917.998	5560.66
919.613	5644.29
921.228	5731.16
922.842	5812.65
924.457	5897.37
926.072	5977.79
927.686	6054.96
929.301	6122.14
930.916	6186.65
932.53	6237.92
934.145	6275.64
935.76	6308.52
937.374	6335.07
938.989	6348.93
940.604	6361.73
942.218	6357.85
943.833	6356.05
945.448	6347.34
947.062	6336.8
948.677	6317.53
950.291	6301.22
951.906	6277.03
953.521	6260.79
955.135	6235.35
956.75	6215.9
958.364	6196.56
959.979	6182.79
961.593	6166.94
963.208	6150.61
964.822	6138.39
966.437	6140.86
968.051	6135.68
969.666	6139.45
971.28	6143.52
972.895	6150.19
974.509	6158.33
976.123	6173.2
977.738	6184.59
979.352	6205.25
980.966	6218.16
982.58	6244.22
984.194	6261.51
985.809	6286.02
987.423	6314.85
989.037	6342.83
990.651	6368.8
992.265	6404.08
993.879	6433.65
995.493	6469.3
997.107	6504
998.721	6545.56
1000.335	6583.71
1001.948	6624.56
1003.562	6663.76
1005.176	6709.85
1006.79	6748.34
1008.403	6794.48
1010.017	6834.29
1011.63	6884.35
1013.244	6930.42
1014.857	6976.4
1016.471	7020.87
1018.084	7070.75
1019.697	7113.31
1021.311	7164.6
1022.924	7207.23
1024.537	7254.57
1026.15	7299.06
1027.763	7350.17
1029.376	7392.59
1030.989	7440.41
1032.602	7478.32
1034.215	7523.12
1035.828	7556.28
1037.44	7600.84
1039.053	7633.79
1040.666	7670.15
1042.278	7697.83
1043.89	7735.86
1045.503	7760.63
1047.115	7792.97
1048.727	7813.86
1050.34	7840.54
1051.952	7854.52
1053.564	7881.37
1055.176	7895.55
1056.788	7915.1
1058.4	7928.17
1060.011	7946.96
1061.623	7951.58
1063.235	7966.73
1064.846	7970.15
1066.458	7982.07
1068.069	7982.74
1069.68	7989.33
1071.292	7983.39
1072.903	7992.12
1074.514	7986.7
1076.125	7992.22
1077.736	7979.86
1079.347	7976.48
1080.957	7967.73
1082.568	7961.88
1084.179	7950.1
1085.789	7941.13
1087.399	7928.5
1089.01	7921.59
1090.62	7905.23
1092.23	7895.25
1093.84	7881.07
1095.45	7872.86
1097.06	7854.96
1098.67	7846.9
1100.279	7825.71
1101.889	7818.5
1103.498	7800.48
1105.108	7791.93
1106.717	7770.47
1108.326	7763.88
1109.935	7743.14
1111.544	7733.09
1113.153	7706.59
1114.762	7694.94
1116.371	7670.45
1117.979	7651.69
1119.588	7620.2
1121.196	7588.64
1122.804	7544.77
1124.412	7506.63
1126.02	7450.42
1127.628	7394.48
1129.236	7322.58
1130.844	7262.38
1132.451	7174.37
1134.059	7100.23
1135.666	7006.55
1137.273	6929.01
1138.88	6832.79
1140.487	6745.5
1142.094	6648.28
1143.701	6562.01
1145.307	6474.91
1146.914	6401.07
1148.52	6320.9
1150.126	6256.1
1151.733	6193.67
1153.339	6148.76
1154.944	6094.42
1156.55	6062.68
1158.156	6025.41
1159.761	5999.1
1161.367	5970.82
1162.972	5952.91
1164.577	5932.19
1166.182	5923.62
1167.787	5909.62
1169.391	5903.22
1170.996	5887.81
1172.6	5881.61
1174.205	5871.26
1175.809	5863.34
1177.413	5849.11
1179.017	5847.1
1180.62	5830.72
1182.224	5824.55
1183.827	5813.55
1185.431	5810.99
1187.034	5800.96
1188.637	5795.48
1190.24	5785.32
1191.842	5779.54
1193.445	5768.71
1195.047	5764.66
1196.649	5758.06
1198.252	5757.96
1199.854	5745.35
1201.455	5746.04
1203.057	5741.54
1204.658	5749.48
1206.26	5753.97
1207.861	5762.4
1209.462	5764.83
1211.063	5780
1212.664	5788.78
1214.264	5807.22
1215.864	5825.52
1217.465	5849.48
1219.065	5871.19
1220.665	5895.73
1222.264	5912.85
1223.864	5949.58
1225.463	5966.91
1227.062	5992.3
1228.661	6008.71
1230.26	6031
1231.859	6046.62
1233.458	6067.94
1235.056	6080.3
1236.654	6097.91
1238.252	6106.46
1239.85	6119.1
1241.448	6123.09
1243.045	6132.82
1244.642	6135.43
1246.24	6143.98
1247.837	6147.72
1249.433	6160.75
1251.03	6164.68
1252.626	6174.13
1254.223	6173
1255.819	6180.69
1257.414	6181.57
1259.01	6183.37
1260.606	6179.6
1262.201	6181.73
1263.796	6176.3
1265.391	6177.11
1266.986	6171.49
1268.58	6171.7
1270.174	6166.32
1271.769	6158.12
1273.362	6144.21
1274.956	6137.86
1276.55	6124.57
1278.143	6116.53
1279.736	6098.05
1281.329	6087.21
1282.922	6070.35
1284.515	6060.32
1286.107	6039.23
1287.699	6024.12
1289.291	6000.92
1290.883	5983.92
1292.474	5960.97
1294.066	5935.05
1295.657	5911.67
1297.248	5889.03
1298.838	5855.76
1300.429	5829.68
1302.019	5795.09
1303.609	5765.96
1305.199	5726.63
1306.789	5692.77
1308.378	5651.78
1309.967	5613.06
1311.556	5570.15
1313.145	5531.34
1314.734	5480.65
1316.322	5436.15
1317.91	5392.37
1319.498	5347.23
1321.086	5294.88
1322.673	5248.9
1324.261	5196.13
1325.848	5149.55
1327.434	5099.9
1329.021	5053.6
1330.607	5004.23
1332.193	4958.6
1333.779	4913.76
1335.365	4868.71
1336.95	4820.56
1338.535	4781.12
1340.12	4737.55
1341.705	4696.63
1343.29	4648.44
1344.874	4614.31
1346.458	4575.25
1348.042	4539.34
1349.625	4499.4
1351.208	4468.16
1352.791	4431.82
1354.374	4398.18
1355.957	4364.24
1357.539	4331.9
1359.121	4296.69
1360.703	4265.61
1362.285	4230.68
1363.866	4193.34
1365.447	4153.33
1367.028	4120.91
1368.609	4075.65
1370.189	4031.73
1371.769	3984.67
1373.349	3941.75
1374.928	3888.49
1376.508	3839.86
1378.087	3787
1379.666	3736.31
1381.244	3684.86
1382.822	3637.84
1384.401	3590.5
1385.978	3545.66
1387.556	3500.17
1389.133	3461.08
1390.71	3421.22
1392.287	3388.9
1393.863	3359.47
1395.44	3336.89
1397.015	3311.3
1398.591	3293.07
1400.167	3273.45
1401.742	3265.97
1403.317	3251.78
1404.891	3241.87
1406.465	3234.41
1408.04	3223.57
1409.613	3213.15
1411.187	3212.87
1412.76	3211.03
1414.333	3210.31
1415.906	3207.38
1417.478	3206.08
1419.05	3198.25
1420.622	3199.98
1422.194	3201.39
1423.765	3203.22
1425.336	3199.13
1426.907	3202.25
1428.477	3200.63
1430.047	3200.44
1431.617	3201.46
1433.187	3205.76
1434.756	3203.52
1436.325	3201.14
1437.894	3197.83
1439.462	3199.04
1441.03	3196.96
1442.598	3201.69
1444.166	3200.31
1445.733	3197.83
1447.3	3195.96
1448.866	3197.07
1450.433	3195.52
1451.999	3196.59
1453.564	3194.3
1455.13	3196.15
1456.695	3192.66
1458.26	3192.96
1459.825	3192.57
1461.389	3195.87
1462.953	3192.75
1464.516	3194.05
1466.08	3193.12
1467.643	3195.85
1469.205	3196.36
1470.768	3200.01
1472.33	3200.08
1473.892	3200.19
1475.453	3200.05
1477.014	3202.87
1478.575	3205.09
1480.136	3208.55
1481.696	3210.26
1483.256	3211.67
1484.815	3210.7
1486.375	3215.88
1487.934	3219.16
1489.492	3222.95
1491.05	3220.13
1492.608	3226.48
1494.166	3225.44
1495.723	3226.21
1497.28	3228.58
1498.837	3230.78
1500.393	3230.46
1501.95	3233.53
1503.505	3234.29
1505.061	3234.15
1506.616	3239.91
1508.17	3243.35
1509.725	3244.99
1511.279	3245.54
1512.832	3243.49
1514.386	3251.32
1515.939	3252.47
1517.492	3255.64
1519.044	3256.38
1520.596	3262.45
1522.148	3266.61
1523.699	3271.26
1525.25	3271.74
1526.801	3276.94
1528.351	3282.99
1529.901	3285.63
1531.451	3287.36
1533	3292.03
1534.549	3295.86
1536.097	3303.35
1537.646	3303.69
1539.193	3305.4
1540.741	3307.81
1542.288	3314.6
1543.835	3313.01
1545.382	3317.63
1546.928	3320.1
1548.473	3326.06
1550.019	3324.26
1551.564	3321.97
1553.109	3323.47
1554.653	3325.04
1556.197	3327.51
1557.741	3326.64
1559.284	3329.99
1560.827	3333.01
1562.369	3335.99
1563.911	3338.37
1565.453	3339.09
1566.995	3344.13
1568.536	3343.59
1570.076	3346.78
1571.617	3345.6
1573.157	3350.09
1574.696	3357.16
1576.236	3360.3
1577.774	3362.24
1579.313	3366.47
1580.851	3371.99
1582.389	3376.33
1583.926	3375.64
1585.463	3377.88
1587	3381.9
1588.536	3387.4
1590.072	3388.23
1591.607	3395.42
1593.142	3395.46
1594.677	3402.07
1596.211	3404.4
1597.745	3408.68
1599.279	3408.58
1600.812	3416.81
1602.345	3415.52
1603.877	3419.47
1605.409	3415.35
1606.941	3422.08
1608.472	3426.19
1610.003	3425.77
1611.533	3429.15
1613.063	3432.87
1614.593	3427.39
1616.122	3433.44
1617.651	3432.45
1619.179	3437.6
1620.707	3435.89
1622.235	3441.81
1623.762	3437.9
1625.289	3439.29
1626.816	3436.56
1628.342	3442.57
1629.867	3435.87
1631.392	3430.51
1632.917	3428.48
1634.442	3422.63
1635.966	3415.68
1637.489	3412.77
1639.013	3402.9
1640.535	3394.54
1642.058	3383.31
1643.58	3372.13
1645.101	3358.45
1646.622	3350.5
1648.143	3333.96
1649.663	3325.57
1651.183	3306.77
1652.703	3300.34
1654.222	3286.09
1655.741	3270.19
1657.259	3256.47
1658.777	3247.07
1660.294	3234.18
1661.811	3222.39
1663.327	3212.34
1664.844	3203.43
1666.359	3194.53
1667.874	3187.58
1669.389	3177.87
1670.904	3176.14
1672.418	3163.66
1673.931	3162.55
1675.444	3153.89
1676.957	3151.47
1678.469	3150.36
1679.981	3147.72
1681.492	3144.4
1683.003	3142.25
1684.514	3136.42
1686.024	3136.93
1687.533	3130.97
1689.043	3132.06
1690.551	3123.65
1692.06	3125.08
1693.568	3121.52
1695.075	3125.5
1696.582	3121.7
1698.088	3121.14
1699.595	3119.99
1701.1	3120.9
1702.605	3118.05
1704.11	3115.09
1705.614	3114.78
