Data from NQ51A06081_08-44-29-411.txt Node
Date: Tue Dec 18 08:44:29 IST 2018
User: han3-2
Spectrometer: NQ51A0608
Trigger mode: 0
Integration Time (sec): 4.000000E-2
Scans to average: 20
Nonlinearity correction enabled: false
Boxcar width: 2
Storing dark spectrum: false
XAxis mode: Wavelengths
Number of Pixels in Spectrum: 512
>>>>>Begin Spectral Data<<<<<
898.623	2450.64
900.238	2452.9
901.852	2455.24
903.467	2460.57
905.081	2463.82
906.696	2467.68
908.31	2472.34
909.925	2474.62
911.54	2478.12
913.154	2484.51
914.769	2490.11
916.384	2496.35
917.998	2508.09
919.613	2518.15
921.228	2528.07
922.842	2537.71
924.457	2546.75
926.072	2552.15
927.686	2559.29
929.301	2564.39
930.916	2570.53
932.53	2576.4
934.145	2581.06
935.76	2586.29
937.374	2590.38
938.989	2593.42
940.604	2595.91
942.218	2598.6
943.833	2602.28
945.448	2605.65
947.062	2609.54
948.677	2611.63
950.291	2614.49
951.906	2613.73
953.521	2615.2
955.135	2617.03
956.75	2618.7
958.364	2618.96
959.979	2620.06
961.593	2622.11
963.208	2621.7
964.822	2622.65
966.437	2625.32
968.051	2627.25
969.666	2628.36
971.28	2630.56
972.895	2633.51
974.509	2635.08
976.123	2636.69
977.738	2637.53
979.352	2640.29
980.966	2641.39
982.58	2646.05
984.194	2649.19
985.809	2652.93
987.423	2652.88
989.037	2656.72
990.651	2657.69
992.265	2660.35
993.879	2663.08
995.493	2667.18
997.107	2669.57
998.721	2674.36
1000.335	2677.06
1001.948	2679.83
1003.562	2685.43
1005.176	2688.19
1006.79	2690.36
1008.403	2697.53
1010.017	2701.44
1011.63	2704.85
1013.244	2709.81
1014.857	2714.51
1016.471	2715.84
1018.084	2721.59
1019.697	2724.75
1021.311	2728.87
1022.924	2732.22
1024.537	2736.68
1026.15	2738.03
1027.763	2741.87
1029.376	2748.28
1030.989	2751.71
1032.602	2755.73
1034.215	2759.75
1035.828	2765.95
1037.44	2765.58
1039.053	2769.34
1040.666	2773.08
1042.278	2777.08
1043.89	2778.06
1045.503	2783.48
1047.115	2787.68
1048.727	2790.75
1050.34	2793.86
1051.952	2799.17
1053.564	2799.1
1055.176	2802.72
1056.788	2804.94
1058.4	2810.34
1060.011	2811.45
1061.623	2815.88
1063.235	2815.46
1064.846	2819.69
1066.458	2819.26
1068.069	2821.08
1069.68	2821.73
1071.292	2824.22
1072.903	2822.39
1074.514	2825.5
1076.125	2826.21
1077.736	2828.66
1079.347	2828.94
1080.957	2833.89
1082.568	2834.22
1084.179	2836.96
1085.789	2838.46
1087.399	2842.03
1089.01	2841.49
1090.62	2844.99
1092.23	2846.46
1093.84	2850.74
1095.45	2853.41
1097.06	2856.87
1098.67	2857.29
1100.279	2861.49
1101.889	2862.81
1103.498	2866.62
1105.108	2867.87
1106.717	2871.55
1108.326	2870.93
1109.935	2874.8
1111.544	2872.73
1113.153	2875.79
1114.762	2877.55
1116.371	2882.44
1117.979	2882.86
1119.588	2889.64
1121.196	2892.15
1122.804	2894.87
1124.412	2894.35
1126.02	2901.88
1127.628	2903.12
1129.236	2905.78
1130.844	2907.78
1132.451	2915.37
1134.059	2912.2
1135.666	2916.21
1137.273	2915.68
1138.88	2918.78
1140.487	2915.41
1142.094	2919.49
1143.701	2918.13
1145.307	2922.79
1146.914	2921.98
1148.52	2926.33
1150.126	2926.57
1151.733	2931.32
1153.339	2933.07
1154.944	2936.72
1156.55	2938.99
1158.156	2942.67
1159.761	2943.68
1161.367	2947.53
1162.972	2951.97
1164.577	2957.63
1166.182	2958.97
1167.787	2963.38
1169.391	2965.49
1170.996	2967.25
1172.6	2967.71
1174.205	2972.14
1175.809	2973.8
1177.413	2978.59
1179.017	2981.07
1180.62	2985.62
1182.224	2990.48
1183.827	2994.39
1185.431	2993.44
1187.034	2998.29
1188.637	2998.03
1190.24	2998.1
1191.842	2999.43
1193.445	3006.78
1195.047	3005.69
1196.649	3011.54
1198.252	3015.78
1199.854	3019.55
1201.455	3018.93
1203.057	3023.8
1204.658	3021.06
1206.26	3020.86
1207.861	3021.36
1209.462	3022.68
1211.063	3022.33
1212.664	3028.42
1214.264	3030.3
1215.864	3033.27
1217.465	3033.69
1219.065	3040.87
1220.665	3039.24
1222.264	3045.64
1223.864	3045.55
1225.463	3050.01
1227.062	3048.96
1228.661	3056.36
1230.26	3052.78
1231.859	3059.67
1233.458	3060.08
1235.056	3061.06
1236.654	3056.82
1238.252	3060.59
1239.85	3055.97
1241.448	3059.69
1243.045	3059.22
1244.642	3063.51
1246.24	3065.21
1247.837	3068.9
1249.433	3067.44
1251.03	3071.66
1252.626	3068.64
1254.223	3069.49
1255.819	3069.31
1257.414	3072.86
1259.01	3072.56
1260.606	3079.86
1262.201	3078.12
1263.796	3080.41
1265.391	3077.66
1266.986	3079.58
1268.58	3075.12
1270.174	3078.48
1271.769	3077.25
1273.362	3080.09
1274.956	3080.3
1276.55	3085.07
1278.143	3083.18
1279.736	3087.34
1281.329	3085.66
1282.922	3086.94
1284.515	3083.66
1286.107	3087.19
1287.699	3084.17
1289.291	3089.1
1290.883	3087.86
1292.474	3092.43
1294.066	3089.96
1295.657	3093.47
1297.248	3090.35
1298.838	3093.14
1300.429	3090.68
1302.019	3094.56
1303.609	3095.03
1305.199	3099.03
1306.789	3095.93
1308.378	3098.22
1309.967	3095.38
1311.556	3096.88
1313.145	3092.75
1314.734	3094.12
1316.322	3090.18
1317.91	3092.83
1319.498	3087.75
1321.086	3089.91
1322.673	3084.81
1324.261	3086.2
1325.848	3080.11
1327.434	3081.14
1329.021	3074.91
1330.607	3078.79
1332.193	3074.43
1333.779	3077.25
1335.365	3071.65
1336.95	3073.16
1338.535	3065.9
1340.12	3064.79
1341.705	3061.13
1343.29	3060.38
1344.874	3054.43
1346.458	3055.56
1348.042	3049.6
1349.625	3044.37
1351.208	3037.21
1352.791	3035.1
1354.374	3026.85
1355.957	3024.46
1357.539	3014.12
1359.121	3009.41
1360.703	3000.71
1362.285	2997.89
1363.866	2990.43
1365.447	2992.57
1367.028	2989.76
1368.609	2989.13
1370.189	2982.29
1371.769	2978.14
1373.349	2962.85
1374.928	2951
1376.508	2928.65
1378.087	2908.48
1379.666	2886.02
1381.244	2868.66
1382.822	2844.77
1384.401	2830.17
1385.978	2809.51
1387.556	2792.23
1389.133	2769.73
1390.71	2752.17
1392.287	2726.95
1393.863	2706.57
1395.44	2679.56
1397.015	2658.16
1398.591	2632.77
1400.167	2613.2
1401.742	2589.82
1403.317	2572.68
1404.891	2554.32
1406.465	2541.29
1408.04	2526.41
1409.613	2519.54
1411.187	2507.54
1412.76	2499.59
1414.333	2489.52
1415.906	2482.41
1417.478	2472.1
1419.05	2467.26
1420.622	2460.88
1422.194	2455.58
1423.765	2450.51
1425.336	2446.78
1426.907	2440.72
1428.477	2437.34
1430.047	2434.33
1431.617	2435.05
1433.187	2431.86
1434.756	2430.16
1436.325	2425.99
1437.894	2424.72
1439.462	2419.18
1441.03	2420.82
1442.598	2420.29
1444.166	2419.32
1445.733	2418.92
1447.3	2419.24
1448.866	2414.38
1450.433	2415.99
1451.999	2418.05
1453.564	2416.49
1455.13	2415.42
1456.695	2417.64
1458.26	2415.89
1459.825	2416.72
1461.389	2416.51
1462.953	2419.11
1464.516	2419.66
1466.08	2421.89
1467.643	2423.57
1469.205	2427.98
1470.768	2429.26
1472.33	2432.36
1473.892	2434.16
1475.453	2437.21
1477.014	2438.48
1478.575	2443.24
1480.136	2446.5
1481.696	2452.64
1483.256	2455.97
1484.815	2461.97
1486.375	2465.23
1487.934	2470.35
1489.492	2474.29
1491.05	2478.19
1492.608	2480.8
1494.166	2486.04
1495.723	2492.2
1497.28	2499.7
1498.837	2505.95
1500.393	2515.98
1501.95	2522.52
1503.505	2526.78
1505.061	2531.12
1506.616	2537.24
1508.17	2540.26
1509.725	2546.07
1511.279	2552.19
1512.832	2558.31
1514.386	2563.41
1515.939	2570.4
1517.492	2576.54
1519.044	2584.15
1520.596	2588.7
1522.148	2596.86
1523.699	2602.75
1525.25	2608.64
1526.801	2613.68
1528.351	2623.12
1529.901	2628.14
1531.451	2635.6
1533	2640.95
1534.549	2649.41
1536.097	2652.49
1537.646	2659.98
1539.193	2663.33
1540.741	2670.35
1542.288	2673.84
1543.835	2681.53
1545.382	2683.97
1546.928	2691.69
1548.473	2696.68
1550.019	2704.04
1551.564	2707.83
1553.109	2717.46
1554.653	2721.01
1556.197	2728.44
1557.741	2731.91
1559.284	2737.94
1560.827	2740.1
1562.369	2746.75
1563.911	2750.84
1565.453	2757.12
1566.995	2761.19
1568.536	2769.39
1570.076	2770.93
1571.617	2772.34
1573.157	2771.73
1574.696	2777.16
1576.236	2775.12
1577.774	2782.52
1579.313	2786.57
1580.851	2793.77
1582.389	2794.92
1583.926	2799.31
1585.463	2797.4
1587	2801.81
1588.536	2801.16
1590.072	2802.86
1591.607	2803.7
1593.142	2809.04
1594.677	2810.32
1596.211	2814.62
1597.745	2815.2
1599.279	2822.3
1600.812	2823.4
1602.345	2826.55
1603.877	2826.5
1605.409	2831.19
1606.941	2830
1608.472	2832.92
1610.003	2831.37
1611.533	2834.49
1613.063	2832.53
1614.593	2835.11
1616.122	2833.51
1617.651	2837.84
1619.179	2837.44
1620.707	2840.31
1622.235	2838.98
1623.762	2840.3
1625.289	2837.65
1626.816	2838.87
1628.342	2835.63
1629.867	2834.43
1631.392	2830.01
1632.917	2826.02
1634.442	2816.52
1635.966	2811.6
1637.489	2798.08
1639.013	2784.89
1640.535	2763.59
1642.058	2747.56
1643.58	2722.62
1645.101	2702.9
1646.622	2677.28
1648.143	2658.8
1649.663	2631.24
1651.183	2611.02
1652.703	2586.78
1654.222	2566.32
1655.741	2543.38
1657.259	2528.08
1658.777	2508.73
1660.294	2493.52
1661.811	2478.48
1663.327	2465.02
1664.844	2451.61
1666.359	2441.6
1667.874	2430.26
1669.389	2424.11
1670.904	2417.68
1672.418	2411.59
1673.931	2403.54
1675.444	2399
1676.957	2390.5
1678.469	2384.07
1679.981	2377.94
1681.492	2375.2
1683.003	2371.99
1684.514	2369.58
1686.024	2367.1
1687.533	2364.03
1689.043	2358.93
1690.551	2355.52
1692.06	2353
1693.568	2352.15
1695.075	2350.47
1696.582	2350.63
1698.088	2347.72
1699.595	2345.61
1701.1	2341.69
1702.605	2339.16
1704.11	2336.82
1705.614	2335.23
