Data from TEGProteinPowderDDW_NQ51A06081_20-40-59-771.txt Node
Date: Mon Jun 24 20:40:59 IDT 2019
User: han3-2
Spectrometer: NQ51A0608
Trigger mode: 0
Integration Time (sec): 5.000000E0
Scans to average: 3
Nonlinearity correction enabled: false
Boxcar width: 7
Storing dark spectrum: false
XAxis mode: Wavelengths
Number of Pixels in Spectrum: 512
>>>>>Begin Spectral Data<<<<<
898.623	4015.26
900.238	4030.99
901.852	4042.51
903.467	4060.32
905.081	4079.31
906.696	4099.38
908.31	4123.37
909.925	4153.14
911.54	4194.43
913.154	4241.61
914.769	4289.02
916.384	4339.08
917.998	4387.02
919.613	4439.28
921.228	4490.85
922.842	4541.01
924.457	4590.45
926.072	4640.56
927.686	4684.99
929.301	4725.1
930.916	4762.25
932.53	4794.52
934.145	4813.35
935.76	4836.27
937.374	4851.89
938.989	4862.28
940.604	4869.82
942.218	4868.36
943.833	4866.54
945.448	4864.25
947.062	4857.71
948.677	4848.95
950.291	4838.95
951.906	4827.1
953.521	4818.92
955.135	4806.97
956.75	4796.28
958.364	4789.88
959.979	4783.13
961.593	4778.44
963.208	4767.37
964.822	4764.14
966.437	4768.55
968.051	4768.53
969.666	4772.06
971.28	4778.81
972.895	4782.92
974.509	4791.96
976.123	4802.47
977.738	4813.67
979.352	4827.63
980.966	4837.96
982.58	4855.82
984.194	4869.05
985.809	4884.44
987.423	4907.47
989.037	4924.57
990.651	4944.09
992.265	4967.45
993.879	4989.42
995.493	5011.26
997.107	5036.35
998.721	5062.92
1000.335	5090.06
1001.948	5114.21
1003.562	5141.93
1005.176	5171.11
1006.79	5197.22
1008.403	5225.75
1010.017	5253.01
1011.63	5285.08
1013.244	5318.16
1014.857	5345.4
1016.471	5377.01
1018.084	5408.82
1019.697	5439.73
1021.311	5472.5
1022.924	5502.76
1024.537	5532.43
1026.15	5565.35
1027.763	5599.47
1029.376	5630.66
1030.989	5662.15
1032.602	5690.62
1034.215	5720.35
1035.828	5745.44
1037.44	5775.75
1039.053	5801.91
1040.666	5826.1
1042.278	5847.56
1043.89	5873.27
1045.503	5893.28
1047.115	5916.15
1048.727	5933.83
1050.34	5952.38
1051.952	5965.36
1053.564	5985.88
1055.176	5999.77
1056.788	6013.79
1058.4	6027.17
1060.011	6041.03
1061.623	6048.33
1063.235	6060.67
1064.846	6067.27
1066.458	6077.39
1068.069	6083.65
1069.68	6090.52
1071.292	6090.56
1072.903	6100.45
1074.514	6102.09
1076.125	6107.98
1077.736	6103.13
1079.347	6103.15
1080.957	6103.5
1082.568	6101.51
1084.179	6100.01
1085.789	6095.55
1087.399	6092.27
1089.01	6090.15
1090.62	6084.44
1092.23	6079.33
1093.84	6076.15
1095.45	6073.97
1097.06	6066.63
1098.67	6063.85
1100.279	6054.54
1101.889	6052.86
1103.498	6045.95
1105.108	6042.41
1106.717	6032.5
1108.326	6030.59
1109.935	6020.17
1111.544	6016.54
1113.153	6001.68
1114.762	5996.28
1116.371	5984.19
1117.979	5973.59
1119.588	5956.12
1121.196	5936.16
1122.804	5910.47
1124.412	5888.13
1126.02	5854.56
1127.628	5819.42
1129.236	5775.59
1130.844	5739.67
1132.451	5683.89
1134.059	5639.7
1135.666	5581.8
1137.273	5537
1138.88	5479.22
1140.487	5426.43
1142.094	5367.54
1143.701	5314.63
1145.307	5263.66
1146.914	5220.81
1148.52	5173.4
1150.126	5136.04
1151.733	5101.66
1153.339	5077.54
1154.944	5046.63
1156.55	5031.22
1158.156	5011.72
1159.761	4996.47
1161.367	4980.39
1162.972	4969.6
1164.577	4958.3
1166.182	4954.61
1167.787	4948.35
1169.391	4946.47
1170.996	4937.67
1172.6	4934.53
1174.205	4930.67
1175.809	4925.84
1177.413	4919.81
1179.017	4921.89
1180.62	4914.06
1182.224	4913.39
1183.827	4912.4
1185.431	4916.69
1187.034	4917.18
1188.637	4919.56
1190.24	4920.55
1191.842	4923.3
1193.445	4924.36
1195.047	4929.58
1196.649	4934.69
1198.252	4942.38
1199.854	4940.47
1201.455	4947.61
1203.057	4952.06
1204.658	4964.33
1206.26	4974.52
1207.861	4983.46
1209.462	4989.15
1211.063	5001.55
1212.664	5008.99
1214.264	5020.82
1215.864	5034.15
1217.465	5047.48
1219.065	5060.44
1220.665	5072.6
1222.264	5079.57
1223.864	5103.07
1225.463	5109.65
1227.062	5121.67
1228.661	5128.53
1230.26	5138.05
1231.859	5145.63
1233.458	5156
1235.056	5162.82
1236.654	5172.63
1238.252	5177.99
1239.85	5184.37
1241.448	5186.45
1243.045	5191.93
1244.642	5193.59
1246.24	5198.7
1247.837	5202.05
1249.433	5211.4
1251.03	5215.42
1252.626	5221.43
1254.223	5221.36
1255.819	5227.14
1257.414	5229.17
1259.01	5229.58
1260.606	5227.99
1262.201	5229.17
1263.796	5226.9
1265.391	5228.2
1266.986	5226.33
1268.58	5228.04
1270.174	5227.34
1271.769	5221.45
1273.362	5214.01
1274.956	5211.63
1276.55	5205.72
1278.143	5202.32
1279.736	5191.65
1281.329	5186.2
1282.922	5177.35
1284.515	5173.28
1286.107	5161.85
1287.699	5153.39
1289.291	5140.22
1290.883	5130.79
1292.474	5119.08
1294.066	5101.96
1295.657	5090.76
1297.248	5076.57
1298.838	5055.29
1300.429	5039.33
1302.019	5017.52
1303.609	4999.52
1305.199	4974.41
1306.789	4952.71
1308.378	4926.63
1309.967	4900.75
1311.556	4874.25
1313.145	4848.54
1314.734	4814.55
1316.322	4783.71
1317.91	4756.93
1319.498	4725.97
1321.086	4691.87
1322.673	4660.52
1324.261	4624.94
1325.848	4593.71
1327.434	4560.57
1329.021	4528.39
1330.607	4495.26
1332.193	4463.19
1333.779	4434.04
1335.365	4401.69
1336.95	4369.28
1338.535	4342.5
1340.12	4312.35
1341.705	4283.54
1343.29	4248.38
1344.874	4224.56
1346.458	4198.03
1348.042	4171.93
1349.625	4143.39
1351.208	4122.05
1352.791	4096.96
1354.374	4072.93
1355.957	4049.48
1357.539	4025.94
1359.121	4001.42
1360.703	3979.01
1362.285	3954.64
1363.866	3927.91
1365.447	3898.8
1367.028	3876.99
1368.609	3843.9
1370.189	3810.91
1371.769	3776.56
1373.349	3745.43
1374.928	3705.33
1376.508	3668.99
1378.087	3628.02
1379.666	3588.84
1381.244	3550.02
1382.822	3512.94
1384.401	3476.79
1385.978	3441
1387.556	3404.63
1389.133	3372.64
1390.71	3339.64
1392.287	3312.66
1393.863	3288.19
1395.44	3269.55
1397.015	3246.7
1398.591	3230.09
1400.167	3212.39
1401.742	3206.2
1403.317	3192.57
1404.891	3181.92
1406.465	3175.24
1408.04	3163.62
1409.613	3153.15
1411.187	3152.48
1412.76	3150.01
1414.333	3148.53
1415.906	3145.25
1417.478	3143.96
1419.05	3135.32
1420.622	3136.45
1422.194	3137.81
1423.765	3139.01
1425.336	3134.51
1426.907	3137.6
1428.477	3136.06
1430.047	3135.29
1431.617	3136.24
1433.187	3140.21
1434.756	3137.44
1436.325	3134.76
1437.894	3131.62
1439.462	3132.59
1441.03	3130.7
1442.598	3135.55
1444.166	3134.46
1445.733	3131.78
1447.3	3129.77
1448.866	3130.97
1450.433	3129.79
1451.999	3129.86
1453.564	3127.28
1455.13	3129.36
1456.695	3125.45
1458.26	3125.47
1459.825	3125.5
1461.389	3128.45
1462.953	3125.17
1464.516	3125.98
1466.08	3124.85
1467.643	3127.55
1469.205	3127.16
1470.768	3130.81
1472.33	3131.11
1473.892	3130.28
1475.453	3130.49
1477.014	3133.33
1478.575	3135.43
1480.136	3139.29
1481.696	3140.91
1483.256	3142.52
1484.815	3141.16
1486.375	3146.68
1487.934	3149.29
1489.492	3153.34
1491.05	3150.36
1492.608	3157.43
1494.166	3156.18
1495.723	3156.78
1497.28	3159.74
1498.837	3162.32
1500.393	3162.07
1501.95	3164.63
1503.505	3165.05
1505.061	3165.05
1506.616	3169.99
1508.17	3174.04
1509.725	3175.31
1511.279	3176.49
1512.832	3174.31
1514.386	3182.01
1515.939	3183.16
1517.492	3186.1
1519.044	3186.67
1520.596	3192.87
1522.148	3196.63
1523.699	3201.09
1525.25	3201.81
1526.801	3206.82
1528.351	3213.64
1529.901	3216.04
1531.451	3218.03
1533	3222.35
1534.549	3225.84
1536.097	3232.79
1537.646	3232.91
1539.193	3234.22
1540.741	3236.51
1542.288	3242.82
1543.835	3240.41
1545.382	3244.53
1546.928	3247.18
1548.473	3252.77
1550.019	3250.74
1551.564	3247.34
1553.109	3249.01
1554.653	3249.72
1556.197	3252.08
1557.741	3250.23
1559.284	3253.47
1560.827	3255.75
1562.369	3259.08
1563.911	3260.56
1565.453	3261.42
1566.995	3266.59
1568.536	3266.08
1570.076	3268.55
1571.617	3267.03
1573.157	3271.26
1574.696	3278.3
1576.236	3280.85
1577.774	3282.51
1579.313	3286.97
1580.851	3292.35
1582.389	3296.39
1583.926	3296.19
1585.463	3297.48
1587	3301.75
1588.536	3307.39
1590.072	3307.16
1591.607	3314.35
1593.142	3314.09
1594.677	3320.33
1596.211	3322.48
1597.745	3326.17
1599.279	3326.75
1600.812	3334.21
1602.345	3332.25
1603.877	3336.59
1605.409	3332.37
1606.941	3338.42
1608.472	3342.49
1610.003	3341.91
1611.533	3344.56
1613.063	3349.05
1614.593	3343.43
1616.122	3349.3
1617.651	3348.82
1619.179	3353.48
1620.707	3351.93
1622.235	3356.51
1623.762	3352.97
1625.289	3354.29
1626.816	3351.2
1628.342	3356.74
1629.867	3350.66
1631.392	3344.47
1632.917	3342.05
1634.442	3336.09
1635.966	3328.92
1637.489	3325.6
1639.013	3315.92
1640.535	3306.63
1642.058	3295.75
1643.58	3283.71
1645.101	3270.45
1646.622	3262.29
1648.143	3244.57
1649.663	3235.86
1651.183	3216.94
1652.703	3209.43
1654.222	3195.48
1655.741	3179.19
1657.259	3165.14
1658.777	3154.65
1660.294	3141.42
1661.811	3128.69
1663.327	3118.4
1664.844	3109
1666.359	3099.67
1667.874	3092.09
1669.389	3081.88
1670.904	3080.81
1672.418	3067.23
1673.931	3065.7
1675.444	3056.53
1676.957	3053.67
1678.469	3052.37
1679.981	3049.35
1681.492	3045.97
1683.003	3043.39
1684.514	3037.8
1686.024	3037.77
1687.533	3031.53
1689.043	3032.34
1690.551	3023.93
1692.06	3024.4
1693.568	3020.31
1695.075	3024.26
1696.582	3020.31
1698.088	3019.92
1699.595	3018.42
1701.1	3019.14
1702.605	3015.78
1704.11	3012.67
1705.614	3011.9
