Data from COM1_NQ51A06081_21-01-18-279.txt Node
Date: Wed Jul 10 21:01:18 IDT 2019
User: han3-2
Spectrometer: NQ51A0608
Trigger mode: 0
Integration Time (sec): 5.000000E0
Scans to average: 3
Nonlinearity correction enabled: false
Boxcar width: 7
Storing dark spectrum: false
XAxis mode: Wavelengths
Number of Pixels in Spectrum: 512
>>>>>Begin Spectral Data<<<<<
898.623	2922.53
900.238	2929.19
901.852	2928.72
903.467	2934.08
905.081	2936.52
906.696	2938.85
908.31	2940.31
909.925	2946.77
911.54	2948.64
913.154	2955.34
914.769	2958.8
916.384	2965.37
917.998	2966.17
919.613	2973.13
921.228	2977.47
922.842	2983.22
924.457	2985.35
926.072	2992.56
927.686	2993.97
929.301	2997.6
930.916	2999.58
932.53	3005.66
934.145	3001.29
935.76	3009.08
937.374	3011.5
938.989	3015.2
940.604	3017.81
942.218	3017.63
943.833	3017.6
945.448	3022.57
947.062	3022.2
948.677	3024.07
950.291	3023.1
951.906	3024.16
953.521	3025.3
955.135	3026.41
956.75	3025.13
958.364	3030.17
959.979	3030.75
961.593	3035.14
963.208	3028.99
964.822	3031.33
966.437	3036.89
968.051	3038.86
969.666	3039.14
971.28	3043.92
972.895	3042.3
974.509	3046.41
976.123	3047.29
977.738	3051.06
979.352	3052.95
980.966	3053.16
982.58	3056.58
984.194	3057.29
985.809	3055.45
987.423	3063.67
989.037	3062.01
990.651	3064.04
992.265	3065.82
993.879	3068.15
995.493	3066.42
997.107	3070.19
998.721	3070.88
1000.335	3074.85
1001.948	3072.43
1003.562	3076.26
1005.176	3077.07
1006.79	3077.28
1008.403	3076.1
1010.017	3076.31
1011.63	3077.33
1013.244	3081.85
1014.857	3076.82
1016.471	3079.64
1018.084	3078.41
1019.697	3080.24
1021.311	3080.68
1022.924	3082.13
1024.537	3079.01
1026.15	3082.57
1027.763	3083.49
1029.376	3086.41
1030.989	3086.82
1032.602	3088.76
1034.215	3089.52
1035.828	3089.64
1037.44	3091.7
1039.053	3095.37
1040.666	3092.44
1042.278	3092.74
1043.89	3093.38
1045.503	3093.15
1047.115	3092.74
1048.727	3093.01
1050.34	3090.91
1051.952	3088.95
1053.564	3090.33
1055.176	3091.14
1056.788	3088.83
1058.4	3091.07
1060.011	3090.45
1061.623	3089.64
1063.235	3090.06
1064.846	3091.72
1066.458	3092.71
1068.069	3094.72
1069.68	3094.05
1071.292	3093.54
1072.903	3098.35
1074.514	3101.1
1076.125	3104.68
1077.736	3103.46
1079.347	3102.23
1080.957	3106.39
1082.568	3104.73
1084.179	3108.58
1085.789	3105.79
1087.399	3108.58
1089.01	3107.82
1090.62	3108.7
1092.23	3107.01
1093.84	3111.89
1095.45	3111.98
1097.06	3112.56
1098.67	3112.79
1100.279	3110.76
1101.889	3112.24
1103.498	3113.6
1105.108	3113.92
1106.717	3112.24
1108.326	3114.34
1109.935	3112.93
1111.544	3114.34
1113.153	3110.76
1114.762	3112.67
1116.371	3113.81
1117.979	3113.9
1119.588	3115.12
1121.196	3112.37
1122.804	3112.3
1124.412	3114.96
1126.02	3114.82
1127.628	3112.81
1129.236	3110.78
1130.844	3116.39
1132.451	3110.78
1134.059	3114.57
1135.666	3111.52
1137.273	3118.57
1138.88	3118.75
1140.487	3120.07
1142.094	3118.2
1143.701	3116.79
1145.307	3118.43
1146.914	3120.62
1148.52	3119.14
1150.126	3119.1
1151.733	3121.38
1153.339	3126.56
1154.944	3124.27
1156.55	3129.54
1158.156	3131.16
1159.761	3130.93
1161.367	3130.16
1162.972	3128.94
1164.577	3128.36
1166.182	3131.02
1167.787	3133.47
1169.391	3136.22
1170.996	3134.99
1172.6	3135.52
1174.205	3138.43
1175.809	3137.4
1177.413	3136.84
1179.017	3141.14
1180.62	3138.67
1182.224	3138.83
1183.827	3140.08
1185.431	3143.59
1187.034	3145.41
1188.637	3145.78
1190.24	3147.51
1191.842	3146.47
1193.445	3145.74
1195.047	3145.02
1196.649	3146.13
1198.252	3146.29
1199.854	3138.53
1201.455	3136.03
1203.057	3133.19
1204.658	3133.72
1206.26	3135.71
1207.861	3134.02
1209.462	3131.41
1211.063	3131.94
1212.664	3129.66
1214.264	3127.95
1215.864	3131.02
1217.465	3131.69
1219.065	3134.95
1220.665	3134.48
1222.264	3132.38
1223.864	3143.82
1225.463	3142.57
1227.062	3143.54
1228.661	3143.36
1230.26	3142.57
1231.859	3143.38
1233.458	3143.84
1235.056	3144.19
1236.654	3145.39
1238.252	3145.92
1239.85	3144.37
1241.448	3141.76
1243.045	3139.13
1244.642	3137.28
1246.24	3135.13
1247.837	3134.67
1249.433	3136.93
1251.03	3138.16
1252.626	3138.11
1254.223	3135.92
1255.819	3136.36
1257.414	3137.26
1259.01	3133.91
1260.606	3132.06
1262.201	3130.39
1263.796	3129.52
1265.391	3129.15
1266.986	3130.7
1268.58	3131.71
1270.174	3134.92
1271.769	3130.44
1273.362	3128.55
1274.956	3128.06
1276.55	3128.2
1278.143	3128.69
1279.736	3126.42
1281.329	3126.05
1282.922	3127.44
1284.515	3130.56
1286.107	3130.35
1287.699	3130.63
1289.291	3131.25
1290.883	3132.43
1292.474	3135.69
1294.066	3130.83
1295.657	3136.59
1297.248	3137.16
1298.838	3135.92
1300.429	3137.44
1302.019	3138.02
1303.609	3139.66
1305.199	3138.94
1306.789	3138.94
1308.378	3138.83
1309.967	3137.33
1311.556	3138.71
1313.145	3138.87
1314.734	3135.48
1316.322	3132.87
1317.91	3138
1319.498	3136.45
1321.086	3135.18
1322.673	3134.58
1324.261	3133.12
1325.848	3132.22
1327.434	3132.82
1329.021	3132.5
1330.607	3133.1
1332.193	3132.52
1333.779	3136.06
1335.365	3134.67
1336.95	3134.53
1338.535	3135.94
1340.12	3136.79
1341.705	3135.78
1343.29	3130.7
1344.874	3134.11
1346.458	3135.08
1348.042	3134.05
1349.625	3132.54
1351.208	3135.32
1352.791	3134.81
1354.374	3133.54
1355.957	3134.14
1357.539	3133.33
1359.121	3133.1
1360.703	3133.88
1362.285	3135.04
1363.866	3132.73
1365.447	3131.2
1367.028	3136.42
1368.609	3132.98
1370.189	3131.02
1371.769	3130.14
1373.349	3131.92
1374.928	3126.84
1376.508	3126.05
1378.087	3122.82
1379.666	3120.85
1381.244	3119.86
1382.822	3120.23
1384.401	3120.69
1385.978	3120.53
1387.556	3118.84
1389.133	3119.4
1390.71	3116.81
1392.287	3117.36
1393.863	3117.64
1395.44	3120.97
1397.015	3118.38
1398.591	3119.84
1400.167	3117.48
1401.742	3124.41
1403.317	3122.38
1404.891	3122.05
1406.465	3122.65
1408.04	3117.78
1409.613	3113.02
1411.187	3116.44
1412.76	3117.41
1414.333	3118.84
1415.906	3117.99
1417.478	3118.7
1419.05	3111.8
1420.622	3114.78
1422.194	3116.9
1423.765	3119.26
1425.336	3114.89
1426.907	3118.38
1428.477	3116.93
1430.047	3116.51
1431.617	3117.99
1433.187	3122.4
1434.756	3120.02
1436.325	3117.85
1437.894	3114.87
1439.462	3115.93
1441.03	3113.94
1442.598	3119.24
1444.166	3117.71
1445.733	3114.96
1447.3	3112.93
1448.866	3114.27
1450.433	3112.79
1451.999	3113.46
1453.564	3111.01
1455.13	3112.37
1456.695	3108.17
1458.26	3108.24
1459.825	3107.41
1461.389	3110.2
1462.953	3106.97
1464.516	3107.94
1466.08	3105.88
1467.643	3108.05
1469.205	3108.17
1470.768	3111.26
1472.33	3111.29
1473.892	3110.66
1475.453	3109.72
1477.014	3111.98
1478.575	3113.85
1480.136	3116.67
1481.696	3117.25
1483.256	3118.33
1484.815	3116.37
1486.375	3120.28
1487.934	3121.89
1489.492	3125.22
1491.05	3121.38
1492.608	3126.47
1494.166	3124.66
1495.723	3123.69
1497.28	3124.53
1498.837	3125.45
1500.393	3123.74
1501.95	3124.71
1503.505	3123.35
1505.061	3121.89
1506.616	3124.94
1508.17	3126.56
1509.725	3126.07
1511.279	3124.64
1512.832	3120.16
1514.386	3124.97
1515.939	3123.19
1517.492	3122.86
1519.044	3120.81
1520.596	3124.2
1522.148	3125.2
1523.699	3126.84
1525.25	3124.2
1526.801	3126.33
1528.351	3128.92
1529.901	3128.18
1531.451	3126.74
1533	3127.71
1534.549	3127.74
1536.097	3130.76
1537.646	3127.6
1539.193	3125.1
1540.741	3123.81
1542.288	3126.42
1543.835	3120.34
1545.382	3120.39
1546.928	3118.43
1548.473	3119.88
1550.019	3113.99
1551.564	3107.34
1553.109	3104.5
1554.653	3101.54
1556.197	3099.6
1557.741	3094.12
1559.284	3093.57
1560.827	3091.49
1562.369	3090.8
1563.911	3088
1565.453	3084.49
1566.995	3085.27
1568.536	3080.68
1570.076	3079.31
1571.617	3074.28
1573.157	3073.81
1574.696	3076.91
1576.236	3075.2
1577.774	3072.45
1579.313	3072.87
1580.851	3074.25
1582.389	3074.18
1583.926	3070.53
1585.463	3068.38
1587	3068.96
1588.536	3070.39
1590.072	3067.04
1591.607	3070.28
1593.142	3066.56
1594.677	3068.73
1596.211	3067.41
1597.745	3067.53
1599.279	3064.85
1600.812	3068.92
1602.345	3064.16
1603.877	3064.6
1605.409	3057.43
1606.941	3060.02
1608.472	3060.83
1610.003	3057.39
1611.533	3057.9
1613.063	3059.26
1614.593	3051.33
1616.122	3054.13
1617.651	3051.38
1619.179	3054.41
1620.707	3051.1
1622.235	3054.22
1623.762	3049.69
1625.289	3049.42
1626.816	3046.27
1628.342	3051.1
1629.867	3045.42
1631.392	3040.85
1632.917	3040.27
1634.442	3036.43
1635.966	3032.6
1637.489	3033.54
1639.013	3029.52
1640.535	3026.41
1642.058	3022.02
1643.58	3017.37
1645.101	3011.87
1646.622	3011.73
1648.143	3004.39
1649.663	3004.09
1651.183	2994.71
1652.703	2996.37
1654.222	2991.2
1655.741	2983.46
1657.259	2978.19
1658.777	2975.95
1660.294	2970.13
1661.811	2964.3
1663.327	2960.7
1664.844	2956.93
1666.359	2953.4
1667.874	2950.79
1669.389	2945.13
1670.904	2946.51
1672.418	2937.83
1673.931	2939.58
1675.444	2934.11
1676.957	2934.08
1678.469	2935.72
1679.981	2934.98
1681.492	2933.53
1683.003	2933.23
1684.514	2929.42
1686.024	2930.41
1687.533	2925.84
1689.043	2927.11
1690.551	2919.92
1692.06	2921.82
1693.568	2918.97
1695.075	2923.27
1696.582	2919.96
1698.088	2919.5
1699.595	2918.44
1701.1	2919.27
1702.605	2916.42
1704.11	2913.86
1705.614	2913.17
