Data from COM1_NQ51A06081_20-59-36-510.txt Node
Date: Wed Jul 10 20:59:36 IDT 2019
User: han3-2
Spectrometer: NQ51A0608
Trigger mode: 0
Integration Time (sec): 5.000000E0
Scans to average: 3
Nonlinearity correction enabled: false
Boxcar width: 7
Storing dark spectrum: false
XAxis mode: Wavelengths
Number of Pixels in Spectrum: 512
>>>>>Begin Spectral Data<<<<<
898.623	2922.49
900.238	2929.03
901.852	2928.24
903.467	2933.89
905.081	2936.32
906.696	2938.75
908.31	2940.56
909.925	2946.91
911.54	2948.22
913.154	2955.06
914.769	2958.2
916.384	2964.44
917.998	2965.34
919.613	2972.14
921.228	2976.39
922.842	2981.98
924.457	2984.31
926.072	2991.87
927.686	2993.53
929.301	2997.13
930.916	2999.4
932.53	3004.85
934.145	3000.39
935.76	3008.06
937.374	3010.37
938.989	3014.23
940.604	3016.91
942.218	3017
943.833	3017.14
945.448	3022.41
947.062	3022.25
948.677	3024.35
950.291	3023.79
951.906	3024.3
953.521	3025.46
955.135	3026.29
956.75	3025.3
958.364	3030.56
959.979	3031.37
961.593	3035.83
963.208	3029.64
964.822	3032.18
966.437	3037.66
968.051	3039.14
969.666	3039.23
971.28	3043.85
972.895	3041.54
974.509	3044.98
976.123	3045.77
977.738	3049.53
979.352	3051.45
980.966	3051.73
982.58	3055.08
984.194	3055.93
985.809	3054.43
987.423	3063.02
989.037	3061.22
990.651	3063.07
992.265	3065.01
993.879	3067.46
995.493	3065.84
997.107	3069.79
998.721	3070.65
1000.335	3074.85
1001.948	3071.9
1003.562	3075.15
1005.176	3075.62
1006.79	3075.87
1008.403	3074.16
1010.017	3073.86
1011.63	3074.11
1013.244	3078.71
1014.857	3073.84
1016.471	3076.82
1018.084	3075.75
1019.697	3077.28
1021.311	3077.49
1022.924	3078.76
1024.537	3075.73
1026.15	3079.71
1027.763	3081.39
1029.376	3084.65
1030.989	3085.23
1032.602	3087.65
1034.215	3088.39
1035.828	3088.99
1037.44	3091.12
1039.053	3094.68
1040.666	3091.42
1042.278	3091.53
1043.89	3092.53
1045.503	3092.34
1047.115	3091.93
1048.727	3092.09
1050.34	3089.82
1051.952	3087.7
1053.564	3088.85
1055.176	3089.22
1056.788	3087.05
1058.4	3089.99
1060.011	3089.78
1061.623	3089.06
1063.235	3089.15
1064.846	3090.91
1066.458	3091.83
1068.069	3093.87
1069.68	3093.66
1071.292	3093.31
1072.903	3097.91
1074.514	3101.17
1076.125	3104.45
1077.736	3103.62
1079.347	3102.74
1080.957	3106.99
1082.568	3105.03
1084.179	3108.35
1085.789	3105.26
1087.399	3108.49
1089.01	3107.78
1090.62	3108.95
1092.23	3107.13
1093.84	3111.91
1095.45	3111.89
1097.06	3112.67
1098.67	3112.58
1100.279	3110.55
1101.889	3111.89
1103.498	3112.97
1105.108	3113.25
1106.717	3111.54
1108.326	3113.74
1109.935	3112.1
1111.544	3112.97
1113.153	3109.51
1114.762	3111.43
1116.371	3113.09
1117.979	3113.04
1119.588	3114.31
1121.196	3111.7
1122.804	3112.1
1124.412	3114.78
1126.02	3114.61
1127.628	3112.93
1129.236	3111.08
1130.844	3116.46
1132.451	3111.03
1134.059	3115.08
1135.666	3112.63
1137.273	3119.95
1138.88	3119.84
1140.487	3120.76
1142.094	3119.21
1143.701	3117.96
1145.307	3119.54
1146.914	3120.97
1148.52	3119.26
1150.126	3119.19
1151.733	3121.22
1153.339	3126.05
1154.944	3123.88
1156.55	3128.89
1158.156	3130.49
1159.761	3130.09
1161.367	3128.96
1162.972	3127.95
1164.577	3127.53
1166.182	3130.03
1167.787	3132.22
1169.391	3134.72
1170.996	3133.81
1172.6	3134.65
1174.205	3137.6
1175.809	3136.84
1177.413	3136.19
1179.017	3140.7
1180.62	3138.2
1182.224	3138.34
1183.827	3139.84
1185.431	3143.17
1187.034	3144.81
1188.637	3144.74
1190.24	3146.06
1191.842	3144.86
1193.445	3144.21
1195.047	3143.43
1196.649	3144.33
1198.252	3144.07
1199.854	3135.87
1201.455	3133.19
1203.057	3130.07
1204.658	3130.97
1206.26	3132.64
1207.861	3130.3
1209.462	3127.92
1211.063	3128.57
1212.664	3126.47
1214.264	3125.36
1215.864	3128.48
1217.465	3128.69
1219.065	3131.9
1220.665	3131.83
1222.264	3129.75
1223.864	3141.05
1225.463	3140.24
1227.062	3141.35
1228.661	3140.79
1230.26	3140.38
1231.859	3141.35
1233.458	3141.85
1235.056	3142.29
1236.654	3143.66
1238.252	3143.68
1239.85	3142.29
1241.448	3140.33
1243.045	3137.9
1244.642	3135.8
1246.24	3134.25
1247.837	3134.16
1249.433	3136.49
1251.03	3137.76
1252.626	3138.13
1254.223	3135.96
1255.819	3136.68
1257.414	3137.23
1259.01	3133.88
1260.606	3132.1
1262.201	3130.37
1263.796	3129.33
1265.391	3128.87
1266.986	3130.09
1268.58	3131.37
1270.174	3134.39
1271.769	3129.98
1273.362	3127.76
1274.956	3127.16
1276.55	3127.51
1278.143	3128.13
1279.736	3125.57
1281.329	3125.7
1282.922	3127.02
1284.515	3129.77
1286.107	3129.96
1287.699	3130.56
1289.291	3131.25
1290.883	3132.89
1292.474	3136.08
1294.066	3131.37
1295.657	3136.84
1297.248	3137.65
1298.838	3136.33
1300.429	3137.42
1302.019	3137.58
1303.609	3139.31
1305.199	3138.55
1306.789	3138.18
1308.378	3138.41
1309.967	3136.59
1311.556	3137.76
1313.145	3137.9
1314.734	3134
1316.322	3131.06
1317.91	3135.89
1319.498	3134.62
1321.086	3133.19
1322.673	3132.71
1324.261	3131.53
1325.848	3131.02
1327.434	3131.39
1329.021	3130.72
1330.607	3131.3
1332.193	3130.49
1333.779	3134.44
1335.365	3133.17
1336.95	3132.77
1338.535	3134.67
1340.12	3135.96
1341.705	3134.74
1343.29	3129.33
1344.874	3132.77
1346.458	3133.31
1348.042	3131.78
1349.625	3129.89
1351.208	3133.28
1352.791	3132.75
1354.374	3131.3
1355.957	3131.76
1357.539	3130.44
1359.121	3130.21
1360.703	3131.06
1362.285	3131.87
1363.866	3129.33
1365.447	3127.88
1367.028	3133.14
1368.609	3129.54
1370.189	3127.51
1371.769	3126.1
1373.349	3127.55
1374.928	3121.66
1376.508	3120.69
1378.087	3117.39
1379.666	3115.22
1381.244	3114.06
1382.822	3113.51
1384.401	3113.44
1385.978	3112.84
1387.556	3110.62
1389.133	3110.43
1390.71	3107.55
1392.287	3107.41
1393.863	3107.57
1395.44	3110.62
1397.015	3107.78
1398.591	3108.82
1400.167	3106.14
1401.742	3112.58
1403.317	3109.95
1404.891	3108.82
1406.465	3109.32
1408.04	3104.06
1409.613	3098.74
1411.187	3101.68
1412.76	3102.28
1414.333	3103.09
1415.906	3101.84
1417.478	3101.77
1419.05	3094.47
1420.622	3096.85
1422.194	3098.77
1423.765	3100.66
1425.336	3096.36
1426.907	3099.51
1428.477	3097.82
1430.047	3097.31
1431.617	3098.51
1433.187	3102.53
1434.756	3099.87
1436.325	3097.47
1437.894	3094.35
1439.462	3095.51
1441.03	3093.41
1442.598	3098.56
1444.166	3096.99
1445.733	3093.84
1447.3	3091.6
1448.866	3092.57
1450.433	3091.42
1451.999	3092.25
1453.564	3089.5
1455.13	3091.14
1456.695	3087.33
1458.26	3087.68
1459.825	3087.14
1461.389	3090.03
1462.953	3086.5
1464.516	3087.26
1466.08	3085.76
1467.643	3088.05
1469.205	3087.95
1470.768	3091.26
1472.33	3091.58
1473.892	3091
1475.453	3090.61
1477.014	3093.29
1478.575	3095.12
1480.136	3098.33
1481.696	3099.14
1483.256	3100.34
1484.815	3098.51
1486.375	3102.86
1487.934	3105.05
1489.492	3108.24
1491.05	3104.91
1492.608	3110.71
1494.166	3109.07
1495.723	3108.33
1497.28	3109.25
1498.837	3109.95
1500.393	3108.19
1501.95	3109.35
1503.505	3108.17
1505.061	3106.18
1506.616	3109.49
1508.17	3111.26
1509.725	3111.06
1511.279	3110.04
1512.832	3105.65
1514.386	3110.66
1515.939	3109.49
1517.492	3109.72
1519.044	3108.19
1520.596	3111.61
1522.148	3113.14
1523.699	3114.34
1525.25	3112.12
1526.801	3113.92
1528.351	3117.32
1529.901	3116.62
1531.451	3115.38
1533	3116.51
1534.549	3116.44
1536.097	3119.86
1537.646	3116.81
1539.193	3114.22
1540.741	3112.81
1542.288	3115.12
1543.835	3109.49
1545.382	3109.65
1546.928	3108.4
1548.473	3109.86
1550.019	3104.45
1551.564	3097.66
1553.109	3095.39
1554.653	3092.23
1556.197	3090.66
1557.741	3085.32
1559.284	3084.19
1560.827	3082.43
1562.369	3081.83
1563.911	3079.31
1565.453	3075.92
1566.995	3076.79
1568.536	3072.22
1570.076	3071.09
1571.617	3065.98
1573.157	3065.7
1574.696	3069.08
1576.236	3067.67
1577.774	3065.45
1579.313	3065.34
1580.851	3066.93
1582.389	3067.44
1583.926	3063.3
1585.463	3061.08
1587	3061.5
1588.536	3063.07
1590.072	3059.77
1591.607	3063.05
1593.142	3059.31
1594.677	3061.78
1596.211	3060.85
1597.745	3060.99
1599.279	3057.96
1600.812	3062.38
1602.345	3057.9
1603.877	3058.47
1605.409	3051.47
1606.941	3054.68
1608.472	3056.02
1610.003	3052.56
1611.533	3053.37
1613.063	3054.64
1614.593	3046.78
1616.122	3049.95
1617.651	3047.11
1619.179	3049.56
1620.707	3046.67
1622.235	3050.06
1623.762	3045.3
1625.289	3045.44
1626.816	3042.55
1628.342	3047.8
1629.867	3042.32
1631.392	3037.86
1632.917	3037.75
1634.442	3033.91
1635.966	3030.61
1637.489	3031.79
1639.013	3027.86
1640.535	3024.83
1642.058	3020.7
1643.58	3016.01
1645.101	3010.37
1646.622	3010.37
1648.143	3002.68
1649.663	3002.52
1651.183	2993.62
1652.703	2995.42
1654.222	2989.92
1655.741	2982.35
1657.259	2976.99
1658.777	2974.65
1660.294	2969.2
1661.811	2963.61
1663.327	2960.1
1664.844	2956.17
1666.359	2952.15
1667.874	2949.82
1669.389	2944.62
1670.904	2946.42
1672.418	2937.48
1673.931	2938.87
1675.444	2933.07
1676.957	2933.21
1678.469	2935.01
1679.981	2934.57
1681.492	2933.32
1683.003	2932.65
1684.514	2929.02
1686.024	2930.6
1687.533	2926.55
1689.043	2928.61
1690.551	2921.12
1692.06	2922.42
1693.568	2919.76
1695.075	2924.31
1696.582	2921
1698.088	2920.75
1699.595	2919.8
1701.1	2920.47
1702.605	2917.63
1704.11	2914.94
1705.614	2914.47
