Data from COM1_NQ51A06081_21-00-05-587.txt Node
Date: Wed Jul 10 21:00:05 IDT 2019
User: han3-2
Spectrometer: NQ51A0608
Trigger mode: 0
Integration Time (sec): 5.000000E0
Scans to average: 3
Nonlinearity correction enabled: false
Boxcar width: 7
Storing dark spectrum: false
XAxis mode: Wavelengths
Number of Pixels in Spectrum: 512
>>>>>Begin Spectral Data<<<<<
898.623	2925.86
900.238	2932.38
901.852	2932.05
903.467	2937.32
905.081	2939.41
906.696	2941.71
908.31	2943.48
909.925	2950.07
911.54	2951.8
913.154	2958.53
914.769	2961.42
916.384	2968
917.998	2968.81
919.613	2975.55
921.228	2979.51
922.842	2985
924.457	2987.2
926.072	2994.48
927.686	2996.02
929.301	2999.95
930.916	3002.31
932.53	3007.92
934.145	3003.21
935.76	3010.56
937.374	3012.82
938.989	3016.68
940.604	3019.2
942.218	3019.34
943.833	3019.71
945.448	3024.81
947.062	3024.53
948.677	3026.87
950.291	3025.78
951.906	3026.68
953.521	3027.93
955.135	3028.69
956.75	3027.45
958.364	3032.64
959.979	3033.34
961.593	3037.59
963.208	3031.3
964.822	3033.98
966.437	3039.55
968.051	3041.24
969.666	3040.82
971.28	3045.7
972.895	3043.71
974.509	3047.75
976.123	3048.68
977.738	3052.42
979.352	3054.89
980.966	3055.86
982.58	3059
984.194	3059.79
985.809	3058.64
987.423	3067.55
989.037	3066.05
990.651	3067.85
992.265	3069.84
993.879	3073.31
995.493	3071.6
997.107	3075.08
998.721	3075.75
1000.335	3079.82
1001.948	3077.05
1003.562	3080.38
1005.176	3080.61
1006.79	3081.14
1008.403	3080.01
1010.017	3079.68
1011.63	3079.89
1013.244	3084.21
1014.857	3079.68
1016.471	3082.64
1018.084	3081.11
1019.697	3083.08
1021.311	3083.33
1022.924	3085.16
1024.537	3082.29
1026.15	3085.97
1027.763	3087.19
1029.376	3090.26
1030.989	3090.93
1032.602	3093.11
1034.215	3094.03
1035.828	3094.68
1037.44	3097.1
1039.053	3100.45
1040.666	3097.26
1042.278	3097.5
1043.89	3098.1
1045.503	3098.14
1047.115	3097.61
1048.727	3097.86
1050.34	3095.88
1051.952	3093.5
1053.564	3094.95
1055.176	3095.67
1056.788	3093.29
1058.4	3095.62
1060.011	3095.3
1061.623	3094.21
1063.235	3094.47
1064.846	3096.13
1066.458	3097.24
1068.069	3099.78
1069.68	3099.6
1071.292	3099.09
1072.903	3103.66
1074.514	3107.06
1076.125	3110.62
1077.736	3109.16
1079.347	3107.89
1080.957	3112.14
1082.568	3110.94
1084.179	3114.64
1085.789	3111.82
1087.399	3114.96
1089.01	3114.66
1090.62	3115.75
1092.23	3113.9
1093.84	3118.54
1095.45	3118.8
1097.06	3119.33
1098.67	3119.17
1100.279	3117.62
1101.889	3119.12
1103.498	3120.41
1105.108	3120.99
1106.717	3118.82
1108.326	3120.67
1109.935	3119.21
1111.544	3120.3
1113.153	3116.49
1114.762	3118.08
1116.371	3119.58
1117.979	3119.84
1119.588	3120.69
1121.196	3118.24
1122.804	3118.22
1124.412	3120.6
1126.02	3120.76
1127.628	3118.96
1129.236	3116.65
1130.844	3122.24
1132.451	3116.9
1134.059	3120.74
1135.666	3117.9
1137.273	3125.08
1138.88	3125.29
1140.487	3126.19
1142.094	3124.69
1143.701	3123.21
1145.307	3124.55
1146.914	3126.95
1148.52	3125.43
1150.126	3125.27
1151.733	3127.46
1153.339	3132.68
1154.944	3130.51
1156.55	3135.5
1158.156	3137.09
1159.761	3136.93
1161.367	3136.42
1162.972	3135.36
1164.577	3135.04
1166.182	3137.3
1167.787	3140.26
1169.391	3143.29
1170.996	3141.53
1172.6	3142.41
1174.205	3145.39
1175.809	3144.77
1177.413	3144.46
1179.017	3148.9
1180.62	3146.64
1182.224	3146.84
1183.827	3148.39
1185.431	3151.83
1187.034	3153.71
1188.637	3153.71
1190.24	3155.44
1191.842	3154.1
1193.445	3153.29
1195.047	3152.87
1196.649	3154.08
1198.252	3154.19
1199.854	3145.76
1201.455	3143.26
1203.057	3140.63
1204.658	3141.39
1206.26	3143.4
1207.861	3141.48
1209.462	3138.64
1211.063	3138.97
1212.664	3136.4
1214.264	3134.74
1215.864	3138.02
1217.465	3138.57
1219.065	3141.95
1220.665	3141.53
1222.264	3139.43
1223.864	3151.37
1225.463	3150.06
1227.062	3150.68
1228.661	3149.99
1230.26	3149.48
1231.859	3150.33
1233.458	3150.96
1235.056	3151.77
1236.654	3153.34
1238.252	3153.41
1239.85	3151.9
1241.448	3149.55
1243.045	3147.05
1244.642	3145
1246.24	3142.99
1247.837	3142.5
1249.433	3144.7
1251.03	3146.08
1252.626	3146.31
1254.223	3143.54
1255.819	3143.96
1257.414	3144.65
1259.01	3141.14
1260.606	3139.64
1262.201	3138.16
1263.796	3136.91
1265.391	3136.68
1266.986	3137.83
1268.58	3138.76
1270.174	3141.76
1271.769	3137.37
1273.362	3135.71
1274.956	3135.32
1276.55	3135.89
1278.143	3137
1279.736	3134.78
1281.329	3134.81
1282.922	3136.42
1284.515	3139.36
1286.107	3139.68
1287.699	3140.35
1289.291	3140.61
1290.883	3141.92
1292.474	3145.27
1294.066	3140.65
1295.657	3146.17
1297.248	3146.38
1298.838	3144.86
1300.429	3145.67
1302.019	3145.9
1303.609	3147.19
1305.199	3146.54
1306.789	3146.13
1308.378	3146.31
1309.967	3144.58
1311.556	3145.74
1313.145	3146.31
1314.734	3142.66
1316.322	3139.8
1317.91	3144.6
1319.498	3143.19
1321.086	3142.13
1322.673	3141.72
1324.261	3140.86
1325.848	3140.19
1327.434	3140.7
1329.021	3140.01
1330.607	3140.7
1332.193	3140.01
1333.779	3144.1
1335.365	3142.73
1336.95	3142.36
1338.535	3144.03
1340.12	3145.04
1341.705	3144.03
1343.29	3138.8
1344.874	3142.02
1346.458	3142.8
1348.042	3141.21
1349.625	3139.29
1351.208	3142.41
1352.791	3141.88
1354.374	3140.38
1355.957	3140.68
1357.539	3139.06
1359.121	3138.94
1360.703	3139.38
1362.285	3140.26
1363.866	3138.18
1365.447	3136.91
1367.028	3141.81
1368.609	3138.5
1370.189	3136.26
1371.769	3134.9
1373.349	3136.29
1374.928	3130.93
1376.508	3130
1378.087	3126.56
1379.666	3124.43
1381.244	3123.02
1382.822	3122.7
1384.401	3122.82
1385.978	3122.24
1387.556	3119.7
1389.133	3119.42
1390.71	3116.72
1392.287	3116.65
1393.863	3116.83
1395.44	3119.79
1397.015	3117.2
1398.591	3118.08
1400.167	3114.98
1401.742	3121.13
1403.317	3118.4
1404.891	3117.62
1406.465	3118.03
1408.04	3112.88
1409.613	3107.55
1411.187	3110.41
1412.76	3111.06
1414.333	3111.98
1415.906	3110.9
1417.478	3111.01
1419.05	3104.15
1420.622	3106.9
1422.194	3109.02
1423.765	3111.17
1425.336	3107.24
1426.907	3110.62
1428.477	3108.89
1430.047	3108.19
1431.617	3109.62
1433.187	3113.88
1434.756	3112.07
1436.325	3109.62
1437.894	3106.6
1439.462	3107.41
1441.03	3105.14
1442.598	3110.02
1444.166	3108.47
1445.733	3105.35
1447.3	3103.16
1448.866	3104.31
1450.433	3102.83
1451.999	3103.32
1453.564	3100.87
1455.13	3102.21
1456.695	3098.23
1458.26	3097.86
1459.825	3097.31
1461.389	3099.94
1462.953	3096.32
1464.516	3097.03
1466.08	3095.51
1467.643	3097.5
1469.205	3097.36
1470.768	3101.1
1472.33	3100.75
1473.892	3100.13
1475.453	3099.76
1477.014	3102.14
1478.575	3104.01
1480.136	3107.13
1481.696	3108.01
1483.256	3109.09
1484.815	3107.55
1486.375	3112.37
1487.934	3114.78
1489.492	3118.33
1491.05	3114.8
1492.608	3120.18
1494.166	3117.9
1495.723	3117.78
1497.28	3118.89
1498.837	3119.81
1500.393	3118.24
1501.95	3119.72
1503.505	3118.8
1505.061	3117.2
1506.616	3120.74
1508.17	3122.49
1509.725	3121.71
1511.279	3120.64
1512.832	3116.07
1514.386	3121.18
1515.939	3120.07
1517.492	3120.46
1519.044	3118.45
1520.596	3122.19
1522.148	3123.69
1523.699	3124.85
1525.25	3122.31
1526.801	3124.25
1528.351	3127.55
1529.901	3126.88
1531.451	3125.54
1533	3127.07
1534.549	3127.04
1536.097	3130.35
1537.646	3127.3
1539.193	3124.78
1540.741	3123.26
1542.288	3125.75
1543.835	3119.88
1545.382	3120
1546.928	3118.66
1548.473	3120.18
1550.019	3114.8
1551.564	3107.85
1553.109	3105.23
1554.653	3102.25
1556.197	3100.85
1557.741	3095.58
1559.284	3094.95
1560.827	3093.17
1562.369	3092.57
1563.911	3090.24
1565.453	3087.45
1566.995	3088.12
1568.536	3083.26
1570.076	3082.13
1571.617	3077.23
1573.157	3076.82
1574.696	3080.19
1576.236	3078.87
1577.774	3076.42
1579.313	3076.19
1580.851	3077.35
1582.389	3077.23
1583.926	3073.17
1585.463	3071.25
1587	3071.67
1588.536	3072.64
1590.072	3069.42
1591.607	3072.64
1593.142	3069.17
1594.677	3071.43
1596.211	3070.44
1597.745	3070.44
1599.279	3067.51
1600.812	3071.92
1602.345	3067.3
1603.877	3068.02
1605.409	3061.52
1606.941	3064.53
1608.472	3065.38
1610.003	3061.94
1611.533	3062.31
1613.063	3063.42
1614.593	3055.89
1616.122	3059.26
1617.651	3056.53
1619.179	3058.8
1620.707	3055.7
1622.235	3058.82
1623.762	3053.94
1625.289	3053.85
1626.816	3051.06
1628.342	3055.7
1629.867	3050.09
1631.392	3045.58
1632.917	3045.42
1634.442	3042.19
1635.966	3038.79
1637.489	3039.48
1639.013	3034.72
1640.535	3031.19
1642.058	3027.08
1643.58	3022.36
1645.101	3016.49
1646.622	3016.1
1648.143	3008.25
1649.663	3007.9
1651.183	2998.73
1652.703	2999.95
1654.222	2994.73
1655.741	2986.99
1657.259	2981.54
1658.777	2979.3
1660.294	2973.71
1661.811	2967.95
1663.327	2964.6
1664.844	2960.65
1666.359	2956.61
1667.874	2953.95
1669.389	2948.89
1670.904	2950.76
1672.418	2941.52
1673.931	2942.96
1675.444	2937.66
1676.957	2937.57
1678.469	2938.82
1679.981	2937.87
1681.492	2936.21
1683.003	2935.84
1684.514	2931.98
1686.024	2932.86
1687.533	2928.08
1689.043	2929.76
1690.551	2922.69
1692.06	2923.8
1693.568	2920.78
1695.075	2925
1696.582	2921.57
1698.088	2921.05
1699.595	2919.74
1701.1	2920.44
1702.605	2917.32
1704.11	2914.4
1705.614	2913.48
