Data from COM1_NQ51A06081_21-00-49-200.txt Node
Date: Wed Jul 10 21:00:49 IDT 2019
User: han3-2
Spectrometer: NQ51A0608
Trigger mode: 0
Integration Time (sec): 5.000000E0
Scans to average: 3
Nonlinearity correction enabled: false
Boxcar width: 7
Storing dark spectrum: false
XAxis mode: Wavelengths
Number of Pixels in Spectrum: 512
>>>>>Begin Spectral Data<<<<<
898.623	2923.31
900.238	2930.46
901.852	2929.66
903.467	2934.9
905.081	2936.81
906.696	2939.01
908.31	2940.75
909.925	2947.39
911.54	2949.26
913.154	2955.85
914.769	2958.83
916.384	2965.09
917.998	2965.99
919.613	2973.29
921.228	2977.06
922.842	2982.39
924.457	2984.2
926.072	2991.57
927.686	2993.21
929.301	2997.27
930.916	2999.88
932.53	3005.77
934.145	3001.13
935.76	3008.5
937.374	3011.13
938.989	3014.92
940.604	3017.74
942.218	3017.9
943.833	3017.63
945.448	3022.85
947.062	3022.85
948.677	3025.2
950.291	3024.16
951.906	3024.95
953.521	3026.22
955.135	3026.75
956.75	3025.44
958.364	3030.43
959.979	3030.91
961.593	3035.05
963.208	3029.04
964.822	3031.26
966.437	3036.39
968.051	3038.17
969.666	3038
971.28	3042.42
972.895	3040.34
974.509	3044.17
976.123	3045.07
977.738	3048.75
979.352	3051.08
980.966	3051.31
982.58	3054.68
984.194	3055.95
985.809	3054.34
987.423	3062.66
989.037	3061.06
990.651	3063.26
992.265	3065.15
993.879	3067.81
995.493	3066.17
997.107	3069.72
998.721	3070.97
1000.335	3075.29
1001.948	3072.5
1003.562	3075.34
1005.176	3075.71
1006.79	3075.87
1008.403	3074.37
1010.017	3074.51
1011.63	3074.9
1013.244	3079.27
1014.857	3074.11
1016.471	3077.37
1018.084	3076.49
1019.697	3078.39
1021.311	3078.74
1022.924	3080.1
1024.537	3076.75
1026.15	3080.47
1027.763	3082.09
1029.376	3085.23
1030.989	3085.99
1032.602	3088.05
1034.215	3088.48
1035.828	3089.04
1037.44	3091.67
1039.053	3095.51
1040.666	3092.3
1042.278	3092.32
1043.89	3093.17
1045.503	3092.99
1047.115	3092.39
1048.727	3092.85
1050.34	3090.77
1051.952	3088.48
1053.564	3089.94
1055.176	3090.49
1056.788	3088.25
1058.4	3090.82
1060.011	3090.31
1061.623	3089.32
1063.235	3089.48
1064.846	3090.86
1066.458	3091.9
1068.069	3093.96
1069.68	3093.52
1071.292	3092.92
1072.903	3097.33
1074.514	3100.18
1076.125	3103.55
1077.736	3102.19
1079.347	3101.31
1080.957	3105.49
1082.568	3103.85
1084.179	3107.5
1085.789	3104.15
1087.399	3107.22
1089.01	3106.74
1090.62	3107.73
1092.23	3105.95
1093.84	3111.13
1095.45	3111.47
1097.06	3111.91
1098.67	3111.68
1100.279	3110.16
1101.889	3111.89
1103.498	3112.97
1105.108	3113.67
1106.717	3111.91
1108.326	3114.2
1109.935	3112.88
1111.544	3114.01
1113.153	3110.09
1114.762	3111.87
1116.371	3113.6
1117.979	3113.53
1119.588	3114.64
1121.196	3112.35
1122.804	3112.91
1124.412	3115.56
1126.02	3115.61
1127.628	3113.64
1129.236	3111.47
1130.844	3117.32
1132.451	3111.63
1134.059	3115.56
1135.666	3112.56
1137.273	3119.84
1138.88	3120.23
1140.487	3120.88
1142.094	3119
1143.701	3117.96
1145.307	3119.35
1146.914	3121.18
1148.52	3119.33
1150.126	3119
1151.733	3121.25
1153.339	3125.94
1154.944	3123.37
1156.55	3128.52
1158.156	3130.33
1159.761	3130.26
1161.367	3129.68
1162.972	3128.41
1164.577	3128.34
1166.182	3130.9
1167.787	3132.84
1169.391	3135.82
1170.996	3134.92
1172.6	3135.92
1174.205	3138.6
1175.809	3137.72
1177.413	3137.49
1179.017	3142.06
1180.62	3139.82
1182.224	3140.12
1183.827	3141.67
1185.431	3144.88
1187.034	3146.36
1188.637	3146.08
1190.24	3147.68
1191.842	3146.34
1193.445	3145.46
1195.047	3144.33
1196.649	3145.3
1198.252	3145.76
1199.854	3137.81
1201.455	3135.29
1203.057	3132.27
1204.658	3132.73
1206.26	3134.46
1207.861	3132.43
1209.462	3130.09
1211.063	3130.7
1212.664	3128.32
1214.264	3126.91
1215.864	3130.19
1217.465	3130.67
1219.065	3134.23
1220.665	3133.61
1222.264	3131.25
1223.864	3142.57
1225.463	3141.18
1227.062	3141.97
1228.661	3141.62
1230.26	3140.98
1231.859	3141.83
1233.458	3142.5
1235.056	3142.96
1236.654	3144.4
1238.252	3144.7
1239.85	3143.52
1241.448	3140.98
1243.045	3138.78
1244.642	3136.66
1246.24	3134.81
1247.837	3134.6
1249.433	3136.91
1251.03	3138.53
1252.626	3138.48
1254.223	3135.94
1255.819	3136.56
1257.414	3137.35
1259.01	3134.3
1260.606	3132.71
1262.201	3130.58
1263.796	3129.59
1265.391	3129.33
1266.986	3130.16
1268.58	3131.55
1270.174	3134.69
1271.769	3130.09
1273.362	3127.88
1274.956	3127.25
1276.55	3127.99
1278.143	3128.59
1279.736	3125.87
1281.329	3125.45
1282.922	3126.51
1284.515	3129.49
1286.107	3129.77
1287.699	3129.98
1289.291	3130.6
1290.883	3131.9
1292.474	3135.15
1294.066	3130.39
1295.657	3136.19
1297.248	3136.91
1298.838	3135.45
1300.429	3136.47
1302.019	3137.05
1303.609	3138.85
1305.199	3138.32
1306.789	3138.37
1308.378	3138.41
1309.967	3136.89
1311.556	3138.18
1313.145	3138.41
1314.734	3134.72
1316.322	3131.8
1317.91	3136.45
1319.498	3134.88
1321.086	3134.07
1322.673	3133.42
1324.261	3131.71
1325.848	3130.97
1327.434	3131.41
1329.021	3130.65
1330.607	3131.2
1332.193	3130.67
1333.779	3134.11
1335.365	3132.8
1336.95	3132.75
1338.535	3134.78
1340.12	3135.8
1341.705	3135.13
1343.29	3129.79
1344.874	3133.03
1346.458	3133.68
1348.042	3132.71
1349.625	3131.41
1351.208	3134.65
1352.791	3134
1354.374	3132.57
1355.957	3133.24
1357.539	3132.5
1359.121	3132.13
1360.703	3132.43
1362.285	3133.28
1363.866	3131.43
1365.447	3130.05
1367.028	3135.29
1368.609	3131.76
1370.189	3129.91
1371.769	3129.29
1373.349	3130.56
1374.928	3124.97
1376.508	3124.53
1378.087	3121.27
1379.666	3119.28
1381.244	3118.36
1382.822	3119.05
1384.401	3120.04
1385.978	3120
1387.556	3118.15
1389.133	3118.38
1390.71	3116.39
1392.287	3117.09
1393.863	3117.62
1395.44	3120.62
1397.015	3118.22
1398.591	3119.93
1400.167	3117.48
1401.742	3124.83
1403.317	3122.56
1404.891	3122.26
1406.465	3122.86
1408.04	3117.64
1409.613	3112.74
1411.187	3115.84
1412.76	3116.83
1414.333	3118.29
1415.906	3117.41
1417.478	3118.36
1419.05	3112.07
1420.622	3115.22
1422.194	3117.64
1423.765	3120.07
1425.336	3115.84
1426.907	3119.61
1428.477	3117.96
1430.047	3117.46
1431.617	3119.07
1433.187	3123.42
1434.756	3121.34
1436.325	3119.33
1437.894	3115.98
1439.462	3116.95
1441.03	3114.78
1442.598	3119.74
1444.166	3118.13
1445.733	3115.15
1447.3	3113.07
1448.866	3114.36
1450.433	3112.86
1451.999	3113.55
1453.564	3111.06
1455.13	3112.58
1456.695	3108.56
1458.26	3108.72
1459.825	3108.17
1461.389	3110.92
1462.953	3107.5
1464.516	3108.1
1466.08	3106.14
1467.643	3108.38
1469.205	3108.12
1470.768	3111.2
1472.33	3110.94
1473.892	3110.06
1475.453	3109.39
1477.014	3111.7
1478.575	3113.51
1480.136	3116.35
1481.696	3116.86
1483.256	3117.55
1484.815	3115.86
1486.375	3120.21
1487.934	3122.05
1489.492	3125.01
1491.05	3121.04
1492.608	3126.26
1494.166	3124.5
1495.723	3123.65
1497.28	3124.39
1498.837	3125.17
1500.393	3122.98
1501.95	3123.56
1503.505	3122.22
1505.061	3120.64
1506.616	3124.02
1508.17	3125.36
1509.725	3124.76
1511.279	3123.63
1512.832	3119.33
1514.386	3124.34
1515.939	3123.07
1517.492	3123.05
1519.044	3121.38
1520.596	3125.01
1522.148	3125.89
1523.699	3127.58
1525.25	3125.29
1526.801	3127.25
1528.351	3130.23
1529.901	3129.36
1531.451	3127.99
1533	3128.73
1534.549	3128.43
1536.097	3131.27
1537.646	3128.06
1539.193	3125.15
1540.741	3123.39
1542.288	3125.24
1543.835	3119
1545.382	3119.35
1546.928	3117.48
1548.473	3119.21
1550.019	3113.9
1551.564	3106.74
1553.109	3103.92
1554.653	3100.48
1556.197	3098.72
1557.741	3093.52
1559.284	3092.9
1560.827	3090.77
1562.369	3090.15
1563.911	3087.75
1565.453	3084.9
1566.995	3085.5
1568.536	3080.84
1570.076	3079.73
1571.617	3074.46
1573.157	3073.74
1574.696	3076.93
1576.236	3075.45
1577.774	3073.14
1579.313	3072.87
1580.851	3073.93
1582.389	3074.14
1583.926	3070.28
1585.463	3068.02
1587	3068.22
1588.536	3069.12
1590.072	3065.94
1591.607	3068.73
1593.142	3064.85
1594.677	3067.09
1596.211	3066.03
1597.745	3065.96
1599.279	3063.16
1600.812	3067.21
1602.345	3062.79
1603.877	3063.49
1605.409	3056.26
1606.941	3059
1608.472	3059.93
1610.003	3056.35
1611.533	3057.04
1613.063	3058.45
1614.593	3051.03
1616.122	3054.06
1617.651	3051.03
1619.179	3053.44
1620.707	3050.34
1622.235	3053.23
1623.762	3048.86
1625.289	3049.02
1626.816	3045.84
1628.342	3050.76
1629.867	3045.23
1631.392	3040.52
1632.917	3040.52
1634.442	3036.78
1635.966	3033.01
1637.489	3033.54
1639.013	3029.48
1640.535	3026.27
1642.058	3022.13
1643.58	3017.6
1645.101	3012.2
1646.622	3011.8
1648.143	3004.04
1649.663	3003.83
1651.183	2994.62
1652.703	2996.05
1654.222	2991.22
1655.741	2983.04
1657.259	2977.93
1658.777	2975.44
1660.294	2969.92
1661.811	2964.05
1663.327	2960.65
1664.844	2956.59
1666.359	2952.71
1667.874	2950.19
1669.389	2944.5
1670.904	2946.03
1672.418	2937.25
1673.931	2938.87
1675.444	2933.58
1676.957	2933.23
1678.469	2935.08
1679.981	2934.2
1681.492	2932.93
1683.003	2932.42
1684.514	2928.75
1686.024	2929.9
1687.533	2925.33
1689.043	2926.94
1690.551	2919.83
1692.06	2921.35
1693.568	2918.56
1695.075	2922.67
1696.582	2919.27
1698.088	2918.67
1699.595	2917.72
1701.1	2918.42
1702.605	2915.28
1704.11	2912.67
1705.614	2912
