Data from COM2_NQ51A06081_21-05-30-467.txt Node
Date: Wed Jul 10 21:05:30 IDT 2019
User: han3-2
Spectrometer: NQ51A0608
Trigger mode: 0
Integration Time (sec): 5.000000E0
Scans to average: 3
Nonlinearity correction enabled: false
Boxcar width: 7
Storing dark spectrum: false
XAxis mode: Wavelengths
Number of Pixels in Spectrum: 512
>>>>>Begin Spectral Data<<<<<
898.623	2926.47
900.238	2933.34
901.852	2933.02
903.467	2938.4
905.081	2940.59
906.696	2942.88
908.31	2944.57
909.925	2951.2
911.54	2953.14
913.154	2960.12
914.769	2963.15
916.384	2969.73
917.998	2970.93
919.613	2978.28
921.228	2982.05
922.842	2987.78
924.457	2989.81
926.072	2997.34
927.686	2999.31
929.301	3003.6
930.916	3006.03
932.53	3012.04
934.145	3007.28
935.76	3014.83
937.374	3017.07
938.989	3020.44
940.604	3023.12
942.218	3023.06
943.833	3022.94
945.448	3028.42
947.062	3027.93
948.677	3030.19
950.291	3028.9
951.906	3029.46
953.521	3030.31
955.135	3031.21
956.75	3029.82
958.364	3035.3
959.979	3035.99
961.593	3040.38
963.208	3034.68
964.822	3037.15
966.437	3042.42
968.051	3044.29
969.666	3044.38
971.28	3049.3
972.895	3047.43
974.509	3051.63
976.123	3052.54
977.738	3056.26
979.352	3058.33
980.966	3058.94
982.58	3062.17
984.194	3063.19
985.809	3061.78
987.423	3070.23
989.037	3068.22
990.651	3070.49
992.265	3071.97
993.879	3074.55
995.493	3072.8
997.107	3076.45
998.721	3077.14
1000.335	3081.37
1001.948	3078.67
1003.562	3082.11
1005.176	3082.52
1006.79	3082.78
1008.403	3081.39
1010.017	3081.23
1011.63	3081.76
1013.244	3086.59
1014.857	3081.67
1016.471	3084.67
1018.084	3083.22
1019.697	3084.97
1021.311	3085.11
1022.924	3086.64
1024.537	3083.77
1026.15	3087.68
1027.763	3088.74
1029.376	3091.65
1030.989	3091.95
1032.602	3093.75
1034.215	3094.58
1035.828	3095.07
1037.44	3097.22
1039.053	3101.08
1040.666	3098.44
1042.278	3099.04
1043.89	3100.08
1045.503	3100.04
1047.115	3099.62
1048.727	3099.87
1050.34	3097.77
1051.952	3095.67
1053.564	3097.03
1055.176	3097.77
1056.788	3095.65
1058.4	3098.26
1060.011	3098
1061.623	3097.13
1063.235	3097.15
1064.846	3098.26
1066.458	3099.18
1068.069	3101.21
1069.68	3100.71
1071.292	3100.01
1072.903	3104.47
1074.514	3107.52
1076.125	3111.15
1077.736	3110.13
1079.347	3109.09
1080.957	3113.3
1082.568	3111.7
1084.179	3115.28
1085.789	3112.51
1087.399	3115.54
1089.01	3115.35
1090.62	3116.28
1092.23	3114.43
1093.84	3119.72
1095.45	3120.09
1097.06	3120.62
1098.67	3120.53
1100.279	3118.4
1101.889	3119.61
1103.498	3120.9
1105.108	3121.2
1106.717	3119.1
1108.326	3121.2
1109.935	3119.81
1111.544	3120.9
1113.153	3117.11
1114.762	3118.89
1116.371	3120.53
1117.979	3120.58
1119.588	3121.68
1121.196	3119.05
1122.804	3119.17
1124.412	3121.89
1126.02	3122.08
1127.628	3120.23
1129.236	3118.2
1130.844	3124.09
1132.451	3118.52
1134.059	3122.05
1135.666	3119.19
1137.273	3126.21
1138.88	3126.37
1140.487	3127.44
1142.094	3125.64
1143.701	3124.43
1145.307	3126.14
1146.914	3127.76
1148.52	3126.12
1150.126	3125.98
1151.733	3128.75
1153.339	3133.81
1154.944	3131.5
1156.55	3136.86
1158.156	3138.78
1159.761	3138.9
1161.367	3138.43
1162.972	3136.93
1164.577	3136.73
1166.182	3139.15
1167.787	3141.37
1169.391	3144
1170.996	3143.36
1172.6	3144.37
1174.205	3147.58
1175.809	3146.43
1177.413	3146.04
1179.017	3150.33
1180.62	3147.88
1182.224	3147.95
1183.827	3149.34
1185.431	3152.69
1187.034	3154.88
1188.637	3154.91
1190.24	3156.36
1191.842	3155.16
1193.445	3154.56
1195.047	3153.5
1196.649	3154.65
1198.252	3154.21
1199.854	3145.9
1201.455	3143.29
1203.057	3140.54
1204.658	3140.72
1206.26	3142.78
1207.861	3140.95
1209.462	3138.46
1211.063	3138.76
1212.664	3136.17
1214.264	3134.76
1215.864	3137.93
1217.465	3138.32
1219.065	3141.53
1220.665	3140.93
1222.264	3139.24
1223.864	3151.12
1225.463	3150.01
1227.062	3151.03
1228.661	3150.96
1230.26	3150.19
1231.859	3150.86
1233.458	3151.03
1235.056	3151.53
1236.654	3152.85
1238.252	3153.38
1239.85	3152.04
1241.448	3149.76
1243.045	3147.56
1244.642	3145.48
1246.24	3143.38
1247.837	3142.71
1249.433	3145.16
1251.03	3146.31
1252.626	3146.13
1254.223	3143.73
1255.819	3144.35
1257.414	3145.23
1259.01	3142.27
1260.606	3140.63
1262.201	3138.74
1263.796	3137.74
1265.391	3137.16
1266.986	3138.32
1268.58	3139.68
1270.174	3142.8
1271.769	3138.5
1273.362	3136.17
1274.956	3135.69
1276.55	3136.49
1278.143	3137.63
1279.736	3135.25
1281.329	3135.08
1282.922	3136.29
1284.515	3139.34
1286.107	3139.52
1287.699	3140.08
1289.291	3140.77
1290.883	3142.64
1292.474	3146.15
1294.066	3141.48
1295.657	3147.38
1297.248	3148.28
1298.838	3146.96
1300.429	3148.21
1302.019	3148.42
1303.609	3149.94
1305.199	3149.78
1306.789	3149.73
1308.378	3149.82
1309.967	3148.35
1311.556	3150.1
1313.145	3150.31
1314.734	3146.06
1316.322	3143.06
1317.91	3147.77
1319.498	3146.36
1321.086	3145.57
1322.673	3144.93
1324.261	3143.26
1325.848	3142.69
1327.434	3143.1
1329.021	3142.22
1330.607	3143.08
1332.193	3142.57
1333.779	3146.36
1335.365	3144.42
1336.95	3144.51
1338.535	3146.78
1340.12	3147.86
1341.705	3147.26
1343.29	3141.99
1344.874	3144.97
1346.458	3146.13
1348.042	3145.6
1349.625	3143.79
1351.208	3146.73
1352.791	3146.45
1354.374	3144.86
1355.957	3145.27
1357.539	3144.07
1359.121	3144.28
1360.703	3144.95
1362.285	3146.04
1363.866	3143.7
1365.447	3142.09
1367.028	3147.01
1368.609	3144.05
1370.189	3142.41
1371.769	3141.32
1373.349	3143.12
1374.928	3138.43
1376.508	3137.95
1378.087	3135.27
1379.666	3133.84
1381.244	3133.28
1382.822	3133.49
1384.401	3134.05
1385.978	3134.09
1387.556	3132.84
1389.133	3133.84
1390.71	3132.29
1392.287	3133.1
1393.863	3134.05
1395.44	3137.65
1397.015	3135.94
1398.591	3137.79
1400.167	3135.66
1401.742	3142.87
1403.317	3141.25
1404.891	3141.21
1406.465	3142.69
1408.04	3138.92
1409.613	3134.46
1411.187	3138.27
1412.76	3139.98
1414.333	3141.88
1415.906	3141.48
1417.478	3142.36
1419.05	3136.52
1420.622	3139.59
1422.194	3142.15
1423.765	3145.2
1425.336	3141.48
1426.907	3145.34
1428.477	3144.37
1430.047	3144.44
1431.617	3145.69
1433.187	3150.29
1434.756	3148.05
1436.325	3145.92
1437.894	3143.1
1439.462	3144.3
1441.03	3142.18
1442.598	3146.82
1444.166	3145.64
1445.733	3143.22
1447.3	3141.23
1448.866	3142.5
1450.433	3140.93
1451.999	3141.16
1453.564	3138.2
1455.13	3139.91
1456.695	3136.03
1458.26	3136.15
1459.825	3135.45
1461.389	3138.11
1462.953	3134.44
1464.516	3135.11
1466.08	3133.28
1467.643	3135.13
1469.205	3134.44
1470.768	3137.46
1472.33	3137.23
1473.892	3136.4
1475.453	3136.03
1477.014	3138.23
1478.575	3139.94
1480.136	3142.36
1481.696	3143.29
1483.256	3144.1
1484.815	3141.95
1486.375	3146.27
1487.934	3148.16
1489.492	3151.37
1491.05	3147.7
1492.608	3152.76
1494.166	3150.68
1495.723	3149.76
1497.28	3150.45
1498.837	3150.73
1500.393	3148.95
1501.95	3149.62
1503.505	3148.46
1505.061	3146.27
1506.616	3149.2
1508.17	3150.29
1509.725	3149.52
1511.279	3148.02
1512.832	3142.99
1514.386	3147.28
1515.939	3145.85
1517.492	3145.39
1519.044	3143.49
1520.596	3146.68
1522.148	3147.88
1523.699	3148.99
1525.25	3146.38
1526.801	3148.07
1528.351	3150.73
1529.901	3149.69
1531.451	3148.39
1533	3148.79
1534.549	3148.37
1536.097	3151.44
1537.646	3148.16
1539.193	3145.67
1540.741	3144.03
1542.288	3145.85
1543.835	3139.91
1545.382	3139.8
1546.928	3137.86
1548.473	3138.83
1550.019	3132.68
1551.564	3125.8
1553.109	3122.98
1554.653	3119.37
1556.197	3117.76
1557.741	3112.14
1559.284	3111.61
1560.827	3109.79
1562.369	3108.72
1563.911	3106.04
1565.453	3102.58
1566.995	3102.97
1568.536	3098.12
1570.076	3096.52
1571.617	3091.6
1573.157	3091.3
1574.696	3094.19
1576.236	3092.69
1577.774	3090.38
1579.313	3090.36
1580.851	3091.81
1582.389	3091.12
1583.926	3086.8
1585.463	3084.35
1587	3084.37
1588.536	3085.64
1590.072	3082.45
1591.607	3085.57
1593.142	3081.76
1594.677	3083.73
1596.211	3082.41
1597.745	3082.32
1599.279	3079.1
1600.812	3082.99
1602.345	3077.9
1603.877	3078.09
1605.409	3071.39
1606.941	3074.14
1608.472	3074.81
1610.003	3071.48
1611.533	3071.87
1613.063	3072.54
1614.593	3064.76
1616.122	3068.02
1617.651	3065.15
1619.179	3067.83
1620.707	3064.8
1622.235	3067.69
1623.762	3062.98
1625.289	3063.02
1626.816	3059.72
1628.342	3064.41
1629.867	3058.84
1631.392	3054.29
1632.917	3053.9
1634.442	3050.11
1635.966	3046.55
1637.489	3046.85
1639.013	3042.19
1640.535	3038.47
1642.058	3033.66
1643.58	3028.37
1645.101	3022.36
1646.622	3021.35
1648.143	3012.98
1649.663	3012.45
1651.183	3002.45
1652.703	3003.21
1654.222	2997.55
1655.741	2989.32
1657.259	2983.32
1658.777	2980.36
1660.294	2974.24
1661.811	2967.95
1663.327	2964.21
1664.844	2959.98
1666.359	2955.96
1667.874	2953.44
1669.389	2948.11
1670.904	2949.89
1672.418	2940.83
1673.931	2942.35
1675.444	2936.81
1676.957	2936.35
1678.469	2937.66
1679.981	2936.93
1681.492	2935.75
1683.003	2935.31
1684.514	2931.54
1686.024	2932.7
1687.533	2928.08
1689.043	2929.21
1690.551	2921.54
1692.06	2923.13
1693.568	2920.48
1695.075	2924.5
1696.582	2921.22
1698.088	2920.78
1699.595	2919.97
1701.1	2920.63
1702.605	2917.67
1704.11	2914.63
1705.614	2913.91
