Data from COM2_NQ51A06081_21-04-16-001.txt Node
Date: Wed Jul 10 21:04:16 IDT 2019
User: han3-2
Spectrometer: NQ51A0608
Trigger mode: 0
Integration Time (sec): 5.000000E0
Scans to average: 3
Nonlinearity correction enabled: false
Boxcar width: 7
Storing dark spectrum: false
XAxis mode: Wavelengths
Number of Pixels in Spectrum: 512
>>>>>Begin Spectral Data<<<<<
898.623	2927.86
900.238	2934.35
901.852	2934.1
903.467	2939.66
905.081	2941.83
906.696	2944.4
908.31	2945.93
909.925	2952.29
911.54	2954.72
913.154	2961.76
914.769	2964.58
916.384	2970.91
917.998	2972.41
919.613	2979.81
921.228	2983.92
922.842	2989.56
924.457	2992.1
926.072	2999.37
927.686	3001.08
929.301	3005.27
930.916	3007.67
932.53	3013.84
934.145	3009.63
935.76	3017.09
937.374	3019.59
938.989	3023.17
940.604	3025.76
942.218	3026.11
943.833	3026.17
945.448	3031.12
947.062	3030.75
948.677	3032.99
950.291	3032.09
951.906	3032.85
953.521	3034.19
955.135	3034.98
956.75	3033.73
958.364	3039
959.979	3039.92
961.593	3043.8
963.208	3038.4
964.822	3040.89
966.437	3045.67
968.051	3047.59
969.666	3048.08
971.28	3053.09
972.895	3050.94
974.509	3054.73
976.123	3055.84
977.738	3059.1
979.352	3061.32
980.966	3061.99
982.58	3065.13
984.194	3066.1
985.809	3064.87
987.423	3073.19
989.037	3071.64
990.651	3074.07
992.265	3075.89
993.879	3078.25
995.493	3076.77
997.107	3080.38
998.721	3081.51
1000.335	3085.48
1001.948	3083.03
1003.562	3086.08
1005.176	3086.38
1006.79	3087.03
1008.403	3085.02
1010.017	3085
1011.63	3085.55
1013.244	3089.89
1014.857	3084.79
1016.471	3087.72
1018.084	3087.1
1019.697	3088.88
1021.311	3089.2
1022.924	3091
1024.537	3087.93
1026.15	3091.9
1027.763	3093.38
1029.376	3096.25
1030.989	3096.59
1032.602	3099.25
1034.215	3099.97
1035.828	3100.82
1037.44	3103.25
1039.053	3107.34
1040.666	3104.2
1042.278	3104.01
1043.89	3104.91
1045.503	3104.91
1047.115	3104.24
1048.727	3104.61
1050.34	3102.55
1051.952	3100.61
1053.564	3102.19
1055.176	3102.88
1056.788	3100.31
1058.4	3103.06
1060.011	3102.14
1061.623	3101.24
1063.235	3101.05
1064.846	3102.51
1066.458	3103.71
1068.069	3106
1069.68	3105.9
1071.292	3105.33
1072.903	3110.09
1074.514	3113.07
1076.125	3116.51
1077.736	3115.42
1079.347	3114.36
1080.957	3118.96
1082.568	3117.06
1084.179	3120.76
1085.789	3117.87
1087.399	3121.11
1089.01	3120.92
1090.62	3121.82
1092.23	3119.79
1093.84	3124.62
1095.45	3124.83
1097.06	3125.64
1098.67	3125.87
1100.279	3124.2
1101.889	3125.73
1103.498	3126.88
1105.108	3127.04
1106.717	3125.38
1108.326	3127.81
1109.935	3126.68
1111.544	3127.78
1113.153	3124.02
1114.762	3125.91
1116.371	3127.37
1117.979	3127.11
1119.588	3128.38
1121.196	3125.5
1122.804	3125.24
1124.412	3127.51
1126.02	3127.74
1127.628	3126.1
1129.236	3123.99
1130.844	3130
1132.451	3124.2
1134.059	3127.74
1135.666	3124.92
1137.273	3132.24
1138.88	3132.61
1140.487	3133.74
1142.094	3132.08
1143.701	3130.83
1145.307	3132.59
1146.914	3134.81
1148.52	3133.38
1150.126	3132.8
1151.733	3135.11
1153.339	3140.26
1154.944	3137.79
1156.55	3143.17
1158.156	3145.07
1159.761	3144.88
1161.367	3144.1
1162.972	3142.92
1164.577	3142.89
1166.182	3145.9
1167.787	3148.28
1169.391	3151.23
1170.996	3150.31
1172.6	3151.49
1174.205	3154.88
1175.809	3153.91
1177.413	3153.52
1179.017	3157.93
1180.62	3155.42
1182.224	3155.3
1183.827	3157.01
1185.431	3160.43
1187.034	3161.84
1188.637	3161.63
1190.24	3163.18
1191.842	3161.58
1193.445	3160.52
1195.047	3159.27
1196.649	3159.92
1198.252	3159.87
1199.854	3151.95
1201.455	3149.25
1203.057	3146.54
1204.658	3147.51
1206.26	3149.62
1207.861	3147.56
1209.462	3144.88
1211.063	3145.83
1212.664	3143.54
1214.264	3142.02
1215.864	3145.34
1217.465	3145.85
1219.065	3149.52
1220.665	3149.57
1222.264	3147.35
1223.864	3158.88
1225.463	3157.93
1227.062	3158.63
1228.661	3157.98
1230.26	3157.52
1231.859	3158.17
1233.458	3158.65
1235.056	3159.11
1236.654	3160.5
1238.252	3160.78
1239.85	3159.74
1241.448	3157.93
1243.045	3155.67
1244.642	3153.11
1246.24	3150.93
1247.837	3150.54
1249.433	3152.71
1251.03	3154.03
1252.626	3154.05
1254.223	3151.4
1255.819	3151.79
1257.414	3152.53
1259.01	3148.95
1260.606	3147.42
1262.201	3145.55
1263.796	3144.19
1265.391	3143.54
1266.986	3144.49
1268.58	3145.9
1270.174	3149.39
1271.769	3144.95
1273.362	3143.17
1274.956	3142.59
1276.55	3143.54
1278.143	3144.93
1279.736	3142.82
1281.329	3142.66
1282.922	3144.23
1284.515	3147.26
1286.107	3147.51
1287.699	3148.02
1289.291	3148.3
1290.883	3149.85
1292.474	3153.34
1294.066	3148.83
1295.657	3154.58
1297.248	3154.93
1298.838	3153.8
1300.429	3154.82
1302.019	3154.77
1303.609	3156.36
1305.199	3156.18
1306.789	3156.16
1308.378	3156.43
1309.967	3154.91
1311.556	3156.85
1313.145	3157.5
1314.734	3153.75
1316.322	3151.16
1317.91	3156.04
1319.498	3154.77
1321.086	3153.94
1322.673	3153.54
1324.261	3152
1325.848	3151.7
1327.434	3152.39
1329.021	3151.65
1330.607	3152.18
1332.193	3151.14
1333.779	3155.14
1335.365	3153.48
1336.95	3153.15
1338.535	3155.09
1340.12	3155.85
1341.705	3154.86
1343.29	3149.48
1344.874	3152.83
1346.458	3153.48
1348.042	3152.57
1349.625	3150.75
1351.208	3153.73
1352.791	3153.29
1354.374	3152.2
1355.957	3153.29
1357.539	3152.3
1359.121	3152.27
1360.703	3153.17
1362.285	3154.56
1363.866	3152.74
1365.447	3151.49
1367.028	3156.92
1368.609	3153.87
1370.189	3152.18
1371.769	3151.07
1373.349	3153.2
1374.928	3148.42
1376.508	3147.72
1378.087	3144.6
1379.666	3142.8
1381.244	3141.88
1382.822	3142.45
1384.401	3143.49
1385.978	3143.33
1387.556	3141.6
1389.133	3142.02
1390.71	3139.98
1392.287	3140.72
1393.863	3141.83
1395.44	3146.17
1397.015	3144.03
1398.591	3145.62
1400.167	3144.07
1401.742	3151.42
1403.317	3149.66
1404.891	3149.52
1406.465	3150.82
1408.04	3146.2
1409.613	3141.83
1411.187	3145.64
1412.76	3147.05
1414.333	3148.97
1415.906	3148.55
1417.478	3149.11
1419.05	3142.39
1420.622	3145.46
1422.194	3148.02
1423.765	3150.45
1425.336	3146.94
1426.907	3150.7
1428.477	3149.48
1430.047	3149.25
1431.617	3150.13
1433.187	3154.17
1434.756	3152.14
1436.325	3150.22
1437.894	3147.21
1439.462	3148.42
1441.03	3146.71
1442.598	3151.65
1444.166	3150.15
1445.733	3147.45
1447.3	3145.48
1448.866	3146.34
1450.433	3145.16
1451.999	3145.76
1453.564	3143.06
1455.13	3145.41
1456.695	3141.83
1458.26	3141.76
1459.825	3141.05
1461.389	3143.75
1462.953	3139.89
1464.516	3140.21
1466.08	3138.39
1467.643	3140.35
1469.205	3140.24
1470.768	3143.49
1472.33	3143.24
1473.892	3141.88
1475.453	3141.21
1477.014	3143.26
1478.575	3144.49
1480.136	3147.31
1481.696	3147.81
1483.256	3148.76
1484.815	3146.66
1486.375	3150.68
1487.934	3152.27
1489.492	3155.58
1491.05	3152.02
1492.608	3156.87
1494.166	3154.68
1495.723	3154.28
1497.28	3155.16
1498.837	3155.83
1500.393	3154.1
1501.95	3155.28
1503.505	3153.82
1505.061	3151.97
1506.616	3154.58
1508.17	3155.69
1509.725	3155.35
1511.279	3154.26
1512.832	3149.46
1514.386	3153.98
1515.939	3152.23
1517.492	3151.95
1519.044	3149.59
1520.596	3153.06
1522.148	3154.08
1523.699	3155.21
1525.25	3152.48
1526.801	3154.12
1528.351	3156.94
1529.901	3156.46
1531.451	3154.95
1533	3155.49
1534.549	3155.49
1536.097	3158.3
1537.646	3154.93
1539.193	3152.76
1540.741	3151.03
1542.288	3153.04
1543.835	3146.52
1545.382	3146.29
1546.928	3144.28
1548.473	3145.09
1550.019	3139.01
1551.564	3131.83
1553.109	3128.82
1554.653	3125.87
1556.197	3123.97
1557.741	3118.17
1559.284	3117.62
1560.827	3115.84
1562.369	3114.73
1563.911	3112.07
1565.453	3108.95
1566.995	3109.86
1568.536	3105.3
1570.076	3104.01
1571.617	3099.18
1573.157	3098.84
1574.696	3101.79
1576.236	3100.38
1577.774	3098.12
1579.313	3097.96
1580.851	3099.48
1582.389	3098.88
1583.926	3094.68
1585.463	3092.16
1587	3092.41
1588.536	3093.29
1590.072	3089.52
1591.607	3092.25
1593.142	3088.16
1594.677	3090.01
1596.211	3088.58
1597.745	3088.44
1599.279	3085.11
1600.812	3088.74
1602.345	3084.05
1603.877	3084.26
1605.409	3077.35
1606.941	3079.8
1608.472	3080.58
1610.003	3076.89
1611.533	3077.46
1613.063	3078.55
1614.593	3070.83
1616.122	3073.98
1617.651	3071.41
1619.179	3073.79
1620.707	3070.81
1622.235	3073.81
1623.762	3069.08
1625.289	3068.99
1626.816	3065.61
1628.342	3070.12
1629.867	3064.27
1631.392	3059.7
1632.917	3059.26
1634.442	3055.05
1635.966	3051.47
1637.489	3051.82
1639.013	3046.92
1640.535	3042.76
1642.058	3038.19
1643.58	3032.85
1645.101	3026.78
1646.622	3025.76
1648.143	3017.07
1649.663	3016.29
1651.183	3006.24
1652.703	3006.68
1654.222	3000.83
1655.741	2992.3
1657.259	2986.07
1658.777	2982.99
1660.294	2976.83
1661.811	2970.52
1663.327	2966.78
1664.844	2962.22
1666.359	2958.11
1667.874	2955.04
1669.389	2949.33
1670.904	2951
1672.418	2941.92
1673.931	2943.81
1675.444	2938.54
1676.957	2938.13
1678.469	2939.54
1679.981	2938.89
1681.492	2937.04
1683.003	2936.37
1684.514	2932.42
1686.024	2933.18
1687.533	2928.61
1689.043	2930.13
1690.551	2923.18
1692.06	2924.43
1693.568	2921.61
1695.075	2925.6
1696.582	2921.97
1698.088	2921.47
1699.595	2920.2
1701.1	2920.82
1702.605	2917.88
1704.11	2915.44
1705.614	2914.82
