Data from COM2_NQ51A06081_21-06-45-169.txt Node
Date: Wed Jul 10 21:06:45 IDT 2019
User: han3-2
Spectrometer: NQ51A0608
Trigger mode: 0
Integration Time (sec): 5.000000E0
Scans to average: 3
Nonlinearity correction enabled: false
Boxcar width: 7
Storing dark spectrum: false
XAxis mode: Wavelengths
Number of Pixels in Spectrum: 512
>>>>>Begin Spectral Data<<<<<
898.623	2929.2
900.238	2935.92
901.852	2935.34
903.467	2940.82
905.081	2942.93
906.696	2945.41
908.31	2947.26
909.925	2954.18
911.54	2956.24
913.154	2963.1
914.769	2966.24
916.384	2973.08
917.998	2974.24
919.613	2981.72
921.228	2985.74
922.842	2991.63
924.457	2994.18
926.072	3002.12
927.686	3003.83
929.301	3008.25
930.916	3010.63
932.53	3016.54
934.145	3011.69
935.76	3019.17
937.374	3021.62
938.989	3025.8
940.604	3028.58
942.218	3028.69
943.833	3028.6
945.448	3033.68
947.062	3033.41
948.677	3035.44
950.291	3034.31
951.906	3035.32
953.521	3036.71
955.135	3037.59
956.75	3036.5
958.364	3041.98
959.979	3042.72
961.593	3047.18
963.208	3041.03
964.822	3043.55
966.437	3049.16
968.051	3051.4
969.666	3051.93
971.28	3056.51
972.895	3054.52
974.509	3058.36
976.123	3059.17
977.738	3062.42
979.352	3064.67
980.966	3064.97
982.58	3068.25
984.194	3069.49
985.809	3068.13
987.423	3076.4
989.037	3074.74
990.651	3077
992.265	3078.62
993.879	3081.05
995.493	3079.61
997.107	3083.7
998.721	3084.6
1000.335	3088.83
1001.948	3086.38
1003.562	3089.85
1005.176	3090.68
1006.79	3091.07
1008.403	3089.46
1010.017	3089.52
1011.63	3090.66
1013.244	3095.16
1014.857	3089.99
1016.471	3092.92
1018.084	3091.93
1019.697	3094.03
1021.311	3094.42
1022.924	3096.06
1024.537	3093.13
1026.15	3097.08
1027.763	3098.56
1029.376	3101.61
1030.989	3102.32
1032.602	3104.33
1034.215	3104.91
1035.828	3105.35
1037.44	3107.82
1039.053	3111.66
1040.666	3108.91
1042.278	3109.19
1043.89	3110.02
1045.503	3110.06
1047.115	3109.81
1048.727	3110.04
1050.34	3108.01
1051.952	3105.63
1053.564	3107.08
1055.176	3107.55
1056.788	3105.47
1058.4	3108.17
1060.011	3107.5
1061.623	3106.76
1063.235	3106.71
1064.846	3108.63
1066.458	3109.76
1068.069	3111.89
1069.68	3111.24
1071.292	3110.41
1072.903	3115.08
1074.514	3118.22
1076.125	3121.94
1077.736	3120.74
1079.347	3119.47
1080.957	3123.86
1082.568	3122.08
1084.179	3125.77
1085.789	3122.65
1087.399	3126.14
1089.01	3125.24
1090.62	3126.14
1092.23	3124.04
1093.84	3128.73
1095.45	3129.17
1097.06	3130.12
1098.67	3129.89
1100.279	3127.99
1101.889	3129.38
1103.498	3131.18
1105.108	3131.5
1106.717	3129.77
1108.326	3132.04
1109.935	3130.81
1111.544	3131.76
1113.153	3127.85
1114.762	3129.86
1116.371	3131.6
1117.979	3131.67
1119.588	3132.75
1121.196	3130.14
1122.804	3130.49
1124.412	3133.17
1126.02	3133.21
1127.628	3131.09
1129.236	3129.03
1130.844	3134.78
1132.451	3129.26
1134.059	3133.07
1135.666	3130.53
1137.273	3138.23
1138.88	3138.64
1140.487	3139.66
1142.094	3138.18
1143.701	3137.16
1145.307	3138.6
1146.914	3140.63
1148.52	3138.97
1150.126	3138.71
1151.733	3141.25
1153.339	3146.45
1154.944	3144.05
1156.55	3149.29
1158.156	3151.19
1159.761	3151
1161.367	3150.1
1162.972	3148.67
1164.577	3148.51
1166.182	3150.98
1167.787	3153.45
1169.391	3156.43
1170.996	3155.3
1172.6	3156.39
1174.205	3159.87
1175.809	3159.02
1177.413	3158.49
1179.017	3163.32
1180.62	3161.17
1182.224	3161.08
1183.827	3162.79
1185.431	3166.14
1187.034	3167.85
1188.637	3167.87
1190.24	3169.81
1191.842	3168.47
1193.445	3167.55
1195.047	3166.78
1196.649	3167.66
1198.252	3167.48
1199.854	3159.48
1201.455	3157.19
1203.057	3154.26
1204.658	3154.95
1206.26	3156.92
1207.861	3154.65
1209.462	3152.07
1211.063	3153.08
1212.664	3150.52
1214.264	3148.88
1215.864	3152.16
1217.465	3152.94
1219.065	3156.29
1220.665	3156.11
1222.264	3154.21
1223.864	3165.95
1225.463	3164.75
1227.062	3165.47
1228.661	3165.17
1230.26	3164.59
1231.859	3165.56
1233.458	3166.46
1235.056	3166.99
1236.654	3168.56
1238.252	3168.98
1239.85	3167.55
1241.448	3165.19
1243.045	3162.76
1244.642	3160.36
1246.24	3158.19
1247.837	3157.84
1249.433	3159.87
1251.03	3161.12
1252.626	3161.24
1254.223	3159.14
1255.819	3159.81
1257.414	3160.5
1259.01	3157.22
1260.606	3155.92
1262.201	3154.33
1263.796	3153.48
1265.391	3153.08
1266.986	3153.98
1268.58	3155.32
1270.174	3158.56
1271.769	3153.71
1273.362	3151.88
1274.956	3151.6
1276.55	3151.86
1278.143	3152.23
1279.736	3149.76
1281.329	3149.73
1282.922	3150.93
1284.515	3153.68
1286.107	3153.61
1287.699	3153.8
1289.291	3154.21
1290.883	3155.99
1292.474	3159.57
1294.066	3154.95
1295.657	3160.96
1297.248	3161.58
1298.838	3160.2
1300.429	3161.49
1302.019	3161.88
1303.609	3163.25
1305.199	3162.72
1306.789	3162.55
1308.378	3162.74
1309.967	3161.15
1311.556	3162.72
1313.145	3163.5
1314.734	3159.83
1316.322	3157.19
1317.91	3162.21
1319.498	3161.21
1321.086	3160.59
1322.673	3160.22
1324.261	3158.51
1325.848	3158.1
1327.434	3158.97
1329.021	3158.23
1330.607	3159
1332.193	3158.63
1333.779	3162.92
1335.365	3161.47
1336.95	3161.1
1338.535	3163.16
1340.12	3164.1
1341.705	3163.53
1343.29	3158
1344.874	3161.08
1346.458	3161.82
1348.042	3160.91
1349.625	3159
1351.208	3162.16
1352.791	3161.68
1354.374	3160.48
1355.957	3160.85
1357.539	3159.37
1359.121	3159.62
1360.703	3160.24
1362.285	3161.58
1363.866	3159.46
1365.447	3157.93
1367.028	3163.36
1368.609	3160.29
1370.189	3158.67
1371.769	3157.96
1373.349	3160.29
1374.928	3155.18
1376.508	3154.91
1378.087	3152.09
1379.666	3150.8
1381.244	3150.22
1382.822	3150.75
1384.401	3151.86
1385.978	3151.9
1387.556	3151.03
1389.133	3151.74
1390.71	3149.71
1392.287	3150.54
1393.863	3151.56
1395.44	3155.81
1397.015	3154.47
1398.591	3156.78
1400.167	3154.93
1401.742	3162.32
1403.317	3160.66
1404.891	3161.19
1406.465	3162.39
1408.04	3158.26
1409.613	3153.96
1411.187	3157.84
1412.76	3159.53
1414.333	3161.65
1415.906	3161.63
1417.478	3163.18
1419.05	3157.26
1420.622	3160.24
1422.194	3162.83
1423.765	3165.86
1425.336	3162.42
1426.907	3166.23
1428.477	3165.12
1430.047	3165.6
1431.617	3167.31
1433.187	3171.77
1434.756	3169.51
1436.325	3167.91
1437.894	3165.12
1439.462	3166.55
1441.03	3164.5
1442.598	3169.37
1444.166	3167.85
1445.733	3165.35
1447.3	3163.09
1448.866	3164.4
1450.433	3163.22
1451.999	3163.76
1453.564	3160.82
1455.13	3162.21
1456.695	3158.65
1458.26	3158.81
1459.825	3157.82
1461.389	3160.43
1462.953	3156.55
1464.516	3157.22
1466.08	3155.32
1467.643	3157.66
1469.205	3156.99
1470.768	3160.11
1472.33	3159.3
1473.892	3158.12
1475.453	3157.63
1477.014	3159.76
1478.575	3161.31
1480.136	3163.69
1481.696	3163.85
1483.256	3164.66
1484.815	3162.69
1486.375	3166.88
1487.934	3168.22
1489.492	3171.2
1491.05	3167.27
1492.608	3172.03
1494.166	3169.92
1495.723	3169.37
1497.28	3170.16
1498.837	3170.13
1500.393	3167.96
1501.95	3168.82
1503.505	3167.43
1505.061	3165.67
1506.616	3168.47
1508.17	3169.58
1509.725	3168.63
1511.279	3167.31
1512.832	3162.86
1514.386	3167.22
1515.939	3166.04
1517.492	3165.9
1519.044	3163.83
1520.596	3166.64
1522.148	3167.73
1523.699	3168.65
1525.25	3165.9
1526.801	3167.43
1528.351	3169.79
1529.901	3169.05
1531.451	3167.2
1533	3167.94
1534.549	3167.75
1536.097	3170.25
1537.646	3166.71
1539.193	3163.92
1540.741	3162.19
1542.288	3164.13
1543.835	3158.21
1545.382	3158.05
1546.928	3156.52
1548.473	3157.31
1550.019	3151.23
1551.564	3144.4
1553.109	3140.75
1554.653	3137.46
1556.197	3135.45
1557.741	3129.54
1559.284	3128.57
1560.827	3126.72
1562.369	3125.77
1563.911	3122.77
1565.453	3119.47
1566.995	3119.95
1568.536	3114.57
1570.076	3113
1571.617	3108.45
1573.157	3107.71
1574.696	3110.43
1576.236	3109.16
1577.774	3106.6
1579.313	3106.37
1580.851	3107.41
1582.389	3106.94
1583.926	3102.69
1585.463	3100.27
1587	3100.54
1588.536	3101.28
1590.072	3097.82
1591.607	3101.49
1593.142	3097.45
1594.677	3099.09
1596.211	3098
1597.745	3098.03
1599.279	3094.86
1600.812	3099.2
1602.345	3094.4
1603.877	3094.98
1605.409	3088.02
1606.941	3090.45
1608.472	3090.86
1610.003	3087.42
1611.533	3088.16
1613.063	3088.99
1614.593	3081.05
1616.122	3084.14
1617.651	3081.3
1619.179	3083.75
1620.707	3080.4
1622.235	3083.31
1623.762	3077.83
1625.289	3077.46
1626.816	3074.07
1628.342	3078.57
1629.867	3072.54
1631.392	3067.88
1632.917	3066.74
1634.442	3062.22
1635.966	3058.24
1637.489	3057.87
1639.013	3052.84
1640.535	3048.79
1642.058	3043.39
1643.58	3037.8
1645.101	3031.37
1646.622	3029.99
1648.143	3020.88
1649.663	3019.77
1651.183	3009.61
1652.703	3010.14
1654.222	3003.6
1655.741	2995.15
1657.259	2988.68
1658.777	2985.47
1660.294	2979.23
1661.811	2972.6
1663.327	2968.28
1664.844	2963.86
1666.359	2959.61
1667.874	2956.52
1669.389	2951.09
1670.904	2952.59
1672.418	2942.96
1673.931	2944.16
1675.444	2938.45
1676.957	2938.27
1678.469	2939.21
1679.981	2938.38
1681.492	2936.56
1683.003	2935.56
1684.514	2931.54
1686.024	2932.44
1687.533	2927.64
1689.043	2928.84
1690.551	2921.35
1692.06	2922.67
1693.568	2919.81
1695.075	2924.29
1696.582	2920.78
1698.088	2920.19
1699.595	2918.99
1701.1	2919.74
1702.605	2916.59
1704.11	2913.94
1705.614	2913.78
