Data from COM3_NQ51A06081_21-19-44-198.txt Node
Date: Wed Jul 10 21:19:44 IDT 2019
User: han3-2
Spectrometer: NQ51A0608
Trigger mode: 0
Integration Time (sec): 5.000000E0
Scans to average: 3
Nonlinearity correction enabled: false
Boxcar width: 7
Storing dark spectrum: false
XAxis mode: Wavelengths
Number of Pixels in Spectrum: 512
>>>>>Begin Spectral Data<<<<<
898.623	2925.52
900.238	2931.8
901.852	2931.11
903.467	2936.28
905.081	2938.54
906.696	2940.88
908.31	2942.61
909.925	2949.24
911.54	2951.34
913.154	2958.07
914.769	2961.07
916.384	2967.17
917.998	2968.9
919.613	2976.39
921.228	2980.36
922.842	2986.51
924.457	2989.23
926.072	2997.13
927.686	2998.96
929.301	3003.14
930.916	3005.59
932.53	3011.43
934.145	3006.88
935.76	3014.25
937.374	3016.82
938.989	3020.72
940.604	3023.36
942.218	3023.08
943.833	3022.85
945.448	3028.35
947.062	3028.02
948.677	3030.1
950.291	3029.15
951.906	3029.89
953.521	3031.03
955.135	3032.11
956.75	3031.05
958.364	3036.43
959.979	3037.36
961.593	3041.47
963.208	3035.46
964.822	3038.17
966.437	3043.48
968.051	3045.54
969.666	3045.6
971.28	3050.25
972.895	3047.89
974.509	3052
976.123	3053.39
977.738	3057.13
979.352	3058.98
980.966	3059.49
982.58	3062.72
984.194	3063.63
985.809	3062.22
987.423	3070.39
989.037	3068.96
990.651	3071.48
992.265	3073.12
993.879	3075.48
995.493	3074.25
997.107	3078.57
998.721	3079.13
1000.335	3083.26
1001.948	3080.84
1003.562	3084.49
1005.176	3085.27
1006.79	3086.15
1008.403	3084.67
1010.017	3085.13
1011.63	3086.36
1013.244	3090.96
1014.857	3085.94
1016.471	3089.5
1018.084	3088.62
1019.697	3090.19
1021.311	3090.38
1022.924	3092.18
1024.537	3089.18
1026.15	3093.08
1027.763	3094.75
1029.376	3097.63
1030.989	3097.7
1032.602	3099.78
1034.215	3100.24
1035.828	3100.59
1037.44	3102.81
1039.053	3106.9
1040.666	3103.83
1042.278	3104.4
1043.89	3105.14
1045.503	3105.03
1047.115	3104.26
1048.727	3104.82
1050.34	3102.6
1051.952	3100.18
1053.564	3101.82
1055.176	3102.65
1056.788	3101.03
1058.4	3103.83
1060.011	3103.73
1061.623	3102.76
1063.235	3102.39
1064.846	3103.94
1066.458	3104.98
1068.069	3107.34
1069.68	3106.99
1071.292	3106.51
1072.903	3111.08
1074.514	3114.41
1076.125	3118.1
1077.736	3116.83
1079.347	3115.89
1080.957	3119.88
1082.568	3118.2
1084.179	3121.62
1085.789	3118.54
1087.399	3122.1
1089.01	3121.36
1090.62	3122.22
1092.23	3120.46
1093.84	3125.7
1095.45	3126.24
1097.06	3126.86
1098.67	3126.65
1100.279	3125.17
1101.889	3126.72
1103.498	3127.74
1105.108	3127.97
1106.717	3126.37
1108.326	3128.82
1109.935	3127.65
1111.544	3128.69
1113.153	3125.36
1114.762	3127.28
1116.371	3128.94
1117.979	3128.99
1119.588	3129.93
1121.196	3127.28
1122.804	3127.37
1124.412	3129.75
1126.02	3129.84
1127.628	3128.5
1129.236	3126.68
1130.844	3132.13
1132.451	3126.17
1134.059	3129.75
1135.666	3126.88
1137.273	3134.05
1138.88	3134.07
1140.487	3135.13
1142.094	3133.38
1143.701	3132.27
1145.307	3133.84
1146.914	3135.94
1148.52	3134.18
1150.126	3133.91
1151.733	3136.01
1153.339	3141.42
1154.944	3139.2
1156.55	3144.56
1158.156	3146.78
1159.761	3146.66
1161.367	3145.92
1162.972	3144.88
1164.577	3144.51
1166.182	3147.35
1167.787	3149.66
1169.391	3152.46
1170.996	3151.28
1172.6	3152.23
1174.205	3155.35
1175.809	3154.65
1177.413	3154.05
1179.017	3158.51
1180.62	3156.25
1182.224	3156.06
1183.827	3157.7
1185.431	3161.35
1187.034	3163.29
1188.637	3163.16
1190.24	3164.47
1191.842	3163.55
1193.445	3162.9
1195.047	3162.23
1196.649	3163.32
1198.252	3163.53
1199.854	3155.44
1201.455	3152.53
1203.057	3149.71
1204.658	3150.36
1206.26	3152.62
1207.861	3150.63
1209.462	3147.98
1211.063	3148.39
1212.664	3146.27
1214.264	3144.83
1215.864	3148.02
1217.465	3148.65
1219.065	3152.04
1220.665	3151.77
1222.264	3149.8
1223.864	3161.35
1225.463	3160.66
1227.062	3161.75
1228.661	3161.56
1230.26	3161.19
1231.859	3162
1233.458	3162.65
1235.056	3163.36
1236.654	3164.66
1238.252	3165.07
1239.85	3163.64
1241.448	3161.17
1243.045	3158.9
1244.642	3156.73
1246.24	3154.84
1247.837	3154.42
1249.433	3156.76
1251.03	3158.03
1252.626	3158.12
1254.223	3155.44
1255.819	3156.55
1257.414	3156.96
1259.01	3153.45
1260.606	3151.88
1262.201	3150.15
1263.796	3149.46
1265.391	3149.34
1266.986	3150.36
1268.58	3151.9
1270.174	3155.02
1271.769	3150.49
1273.362	3148.53
1274.956	3148.21
1276.55	3148.44
1278.143	3149.57
1279.736	3146.54
1281.329	3146.59
1282.922	3147.95
1284.515	3151.05
1286.107	3151.33
1287.699	3151.58
1289.291	3152.02
1290.883	3153.71
1292.474	3156.71
1294.066	3152.2
1295.657	3158.12
1297.248	3158.44
1298.838	3156.94
1300.429	3158.58
1302.019	3158.65
1303.609	3160.43
1305.199	3160.29
1306.789	3160.61
1308.378	3160.87
1309.967	3159.2
1311.556	3160.64
1313.145	3160.98
1314.734	3157.43
1316.322	3154.65
1317.91	3159.44
1319.498	3158.47
1321.086	3157.56
1322.673	3156.87
1324.261	3155.23
1325.848	3154.93
1327.434	3155.55
1329.021	3154.47
1330.607	3155.07
1332.193	3154.42
1333.779	3158.58
1335.365	3156.8
1336.95	3156.55
1338.535	3158.28
1340.12	3159.71
1341.705	3158.65
1343.29	3152.83
1344.874	3156.13
1346.458	3157.01
1348.042	3155.9
1349.625	3154.24
1351.208	3157.4
1352.791	3157.1
1354.374	3155.53
1355.957	3155.88
1357.539	3154.68
1359.121	3155.3
1360.703	3155.99
1362.285	3157.01
1363.866	3154.86
1365.447	3153.68
1367.028	3159.16
1368.609	3155.99
1370.189	3154.01
1371.769	3152.85
1373.349	3154.1
1374.928	3148.35
1376.508	3147.65
1378.087	3144.12
1379.666	3142.02
1381.244	3140.61
1382.822	3140.26
1384.401	3140.58
1385.978	3139.8
1387.556	3137.21
1389.133	3136.86
1390.71	3133.95
1392.287	3133.91
1393.863	3134.16
1395.44	3137.35
1397.015	3134.46
1398.591	3135.27
1400.167	3132.04
1401.742	3138.67
1403.317	3136.19
1404.891	3135.04
1406.465	3134.85
1408.04	3129.1
1409.613	3123.72
1411.187	3126.47
1412.76	3126.95
1414.333	3127.88
1415.906	3126.49
1417.478	3126.74
1419.05	3119.3
1420.622	3122.08
1422.194	3124.27
1423.765	3126.79
1425.336	3122.59
1426.907	3125.54
1428.477	3124.23
1430.047	3124.09
1431.617	3125.47
1433.187	3129.79
1434.756	3127.41
1436.325	3125.22
1437.894	3122.15
1439.462	3123.05
1441.03	3120.62
1442.598	3125.7
1444.166	3124.04
1445.733	3121.66
1447.3	3119.26
1448.866	3120.6
1450.433	3119.33
1451.999	3119.7
1453.564	3116.81
1455.13	3118.87
1456.695	3115.42
1458.26	3116.05
1459.825	3115.54
1461.389	3118.24
1462.953	3115.05
1464.516	3116.26
1466.08	3114.85
1467.643	3117.36
1469.205	3117.18
1470.768	3120.74
1472.33	3120.6
1473.892	3119.93
1475.453	3119.56
1477.014	3122.38
1478.575	3124.39
1480.136	3127.11
1481.696	3127.88
1483.256	3129.4
1484.815	3128.02
1486.375	3132.75
1487.934	3134.6
1489.492	3137.95
1491.05	3134.6
1492.608	3140.1
1494.166	3138.16
1495.723	3137.79
1497.28	3139.52
1498.837	3140.38
1500.393	3138.57
1501.95	3139.47
1503.505	3138.39
1505.061	3136.59
1506.616	3139.68
1508.17	3141.51
1509.725	3141.09
1511.279	3140.4
1512.832	3136.22
1514.386	3141.07
1515.939	3139.84
1517.492	3140.31
1519.044	3138.71
1520.596	3141.99
1522.148	3143.61
1523.699	3145.5
1525.25	3143.79
1526.801	3146.45
1528.351	3150.26
1529.901	3149.71
1531.451	3148.39
1533	3149.39
1534.549	3149.64
1536.097	3152.97
1537.646	3149.85
1539.193	3147.61
1540.741	3146.47
1542.288	3148.81
1543.835	3142.96
1545.382	3143.45
1546.928	3141.69
1548.473	3143.06
1550.019	3137.16
1551.564	3130.09
1553.109	3127.16
1554.653	3123.76
1556.197	3122.29
1557.741	3116.62
1559.284	3115.95
1560.827	3114.38
1562.369	3113.69
1563.911	3110.85
1565.453	3107.75
1566.995	3108.95
1568.536	3104.15
1570.076	3103.16
1571.617	3097.96
1573.157	3097.68
1574.696	3100.73
1576.236	3099.81
1577.774	3097.86
1579.313	3097.89
1580.851	3099.41
1582.389	3099.25
1583.926	3095.32
1585.463	3093.27
1587	3093.82
1588.536	3095.02
1590.072	3091.42
1591.607	3094.56
1593.142	3091
1594.677	3093.57
1596.211	3092.44
1597.745	3092.6
1599.279	3089.59
1600.812	3093.89
1602.345	3088.88
1603.877	3089.18
1605.409	3082.25
1606.941	3084.81
1608.472	3085.67
1610.003	3082.2
1611.533	3082.69
1613.063	3083.54
1614.593	3076.12
1616.122	3078.87
1617.651	3075.55
1619.179	3077.65
1620.707	3074.23
1622.235	3077.21
1623.762	3072.36
1625.289	3072.38
1626.816	3069.29
1628.342	3073.91
1629.867	3068.29
1631.392	3063.19
1632.917	3062.33
1634.442	3058.15
1635.966	3054.45
1637.489	3054.68
1639.013	3049.72
1640.535	3045.77
1642.058	3041.03
1643.58	3035.62
1645.101	3029.09
1646.622	3027.58
1648.143	3018.5
1649.663	3017.33
1651.183	3007.35
1652.703	3007.39
1654.222	3001.27
1655.741	2992.63
1657.259	2986.32
1658.777	2983.13
1660.294	2976.29
1661.811	2969.69
1663.327	2965.67
1664.844	2961.02
1666.359	2956.77
1667.874	2953.49
1669.389	2947.76
1670.904	2949.26
1672.418	2939.7
1673.931	2940.74
1675.444	2935.22
1676.957	2934.87
1678.469	2936.28
1679.981	2935.29
1681.492	2933.71
1683.003	2933.02
1684.514	2929.21
1686.024	2930.11
1687.533	2925.26
1689.043	2926.41
1690.551	2919.18
1692.06	2920.5
1693.568	2917.56
1695.075	2922
1696.582	2918.6
1698.088	2918.11
1699.595	2916.88
1701.1	2917.32
1702.605	2914.38
1704.11	2911.28
1705.614	2910.49
