Data from COM3_NQ51A06081_21-19-14-193.txt Node
Date: Wed Jul 10 21:19:14 IDT 2019
User: han3-2
Spectrometer: NQ51A0608
Trigger mode: 0
Integration Time (sec): 5.000000E0
Scans to average: 3
Nonlinearity correction enabled: false
Boxcar width: 7
Storing dark spectrum: false
XAxis mode: Wavelengths
Number of Pixels in Spectrum: 512
>>>>>Begin Spectral Data<<<<<
898.623	2925.86
900.238	2932.38
901.852	2931.53
903.467	2937.01
905.081	2939.26
906.696	2941.55
908.31	2943.35
909.925	2949.68
911.54	2951.6
913.154	2958.27
914.769	2961.23
916.384	2967.63
917.998	2968.99
919.613	2975.97
921.228	2979.69
922.842	2985.26
924.457	2987.61
926.072	2995.33
927.686	2996.93
929.301	3000.99
930.916	3003.44
932.53	3009.12
934.145	3004.57
935.76	3011.97
937.374	3014.21
938.989	3017.67
940.604	3020.61
942.218	3020.65
943.833	3020.7
945.448	3025.9
947.062	3025.64
948.677	3027.72
950.291	3026.87
951.906	3027.63
953.521	3028.65
955.135	3029.32
956.75	3028.35
958.364	3033.57
959.979	3034.61
961.593	3038.86
963.208	3032.41
964.822	3034.47
966.437	3039.64
968.051	3041.7
969.666	3041.95
971.28	3046.69
972.895	3044.5
974.509	3048.22
976.123	3049
977.738	3052.37
979.352	3054.68
980.966	3054.48
982.58	3057.64
984.194	3058.5
985.809	3057.02
987.423	3065.96
989.037	3064.43
990.651	3066.33
992.265	3067.9
993.879	3070.46
995.493	3068.59
997.107	3072.45
998.721	3073.35
1000.335	3077.7
1001.948	3075.52
1003.562	3078.48
1005.176	3079.1
1006.79	3079.64
1008.403	3077.9
1010.017	3077.93
1011.63	3078.32
1013.244	3082.66
1014.857	3077.93
1016.471	3080.81
1018.084	3079.59
1019.697	3082.04
1021.311	3082.06
1022.924	3083.59
1024.537	3080.33
1026.15	3083.68
1027.763	3084.95
1029.376	3088.3
1030.989	3088.51
1032.602	3090.38
1034.215	3090.77
1035.828	3091.44
1037.44	3094.38
1039.053	3098.07
1040.666	3095.25
1042.278	3095.32
1043.89	3095.85
1045.503	3096.13
1047.115	3095.69
1048.727	3095.97
1050.34	3094.05
1051.952	3092.04
1053.564	3093.38
1055.176	3094.31
1056.788	3092.16
1058.4	3095.18
1060.011	3094.91
1061.623	3093.73
1063.235	3093.5
1064.846	3094.95
1066.458	3095.97
1068.069	3097.82
1069.68	3097.17
1071.292	3096.64
1072.903	3101.72
1074.514	3104.98
1076.125	3108.82
1077.736	3107.66
1079.347	3106.23
1080.957	3110.27
1082.568	3108.45
1084.179	3111.91
1085.789	3108.75
1087.399	3112.67
1089.01	3112.21
1090.62	3113.23
1092.23	3111.38
1093.84	3116.56
1095.45	3116.58
1097.06	3116.62
1098.67	3116.21
1100.279	3114.48
1101.889	3115.68
1103.498	3117.13
1105.108	3117.85
1106.717	3115.86
1108.326	3118.08
1109.935	3116.6
1111.544	3117.36
1113.153	3113.81
1114.762	3115.89
1116.371	3117.23
1117.979	3117.02
1119.588	3117.87
1121.196	3115.52
1122.804	3115.52
1124.412	3117.57
1126.02	3117.85
1127.628	3116.02
1129.236	3114.08
1130.844	3119.88
1132.451	3114.22
1134.059	3117.99
1135.666	3115.35
1137.273	3122.7
1138.88	3122.82
1140.487	3124.09
1142.094	3122.26
1143.701	3121.11
1145.307	3122.68
1146.914	3124.64
1148.52	3123.39
1150.126	3123.12
1151.733	3125.43
1153.339	3130.53
1154.944	3128.41
1156.55	3133.65
1158.156	3135.66
1159.761	3135.2
1161.367	3133.95
1162.972	3132.75
1164.577	3132.61
1166.182	3135.2
1167.787	3137.93
1169.391	3140.56
1170.996	3139.82
1172.6	3140.63
1174.205	3143.47
1175.809	3142.71
1177.413	3141.95
1179.017	3146.2
1180.62	3143.75
1182.224	3143.63
1183.827	3145.11
1185.431	3148.99
1187.034	3150.93
1188.637	3150.86
1190.24	3152.83
1191.842	3150.93
1193.445	3150.24
1195.047	3149.15
1196.649	3149.94
1198.252	3150.15
1199.854	3141.95
1201.455	3139.68
1203.057	3136.68
1204.658	3137.28
1206.26	3139.34
1207.861	3137.4
1209.462	3134.32
1211.063	3134.81
1212.664	3132.52
1214.264	3130.74
1215.864	3134.32
1217.465	3134.6
1219.065	3138.23
1220.665	3137.83
1222.264	3135.92
1223.864	3147.77
1225.463	3146.54
1227.062	3147.68
1228.661	3147.21
1230.26	3146.66
1231.859	3147.56
1233.458	3148.16
1235.056	3148.39
1236.654	3149.8
1238.252	3150.22
1239.85	3148.81
1241.448	3146.38
1243.045	3143.96
1244.642	3142.55
1246.24	3140.44
1247.837	3139.87
1249.433	3142.15
1251.03	3143.15
1252.626	3143.4
1254.223	3140.98
1255.819	3141.53
1257.414	3142.43
1259.01	3139.43
1260.606	3137.53
1262.201	3135.94
1263.796	3134.9
1265.391	3134.95
1266.986	3135.75
1268.58	3136.33
1270.174	3139.57
1271.769	3134.99
1273.362	3133.01
1274.956	3132.77
1276.55	3133.4
1278.143	3133.98
1279.736	3131.53
1281.329	3131.48
1282.922	3132.96
1284.515	3135.99
1286.107	3135.92
1287.699	3136.54
1289.291	3137.23
1290.883	3139.36
1292.474	3143.24
1294.066	3138.6
1295.657	3144.44
1297.248	3145.04
1298.838	3143.82
1300.429	3145
1302.019	3145.67
1303.609	3147.03
1305.199	3146.57
1306.789	3146.11
1308.378	3146.27
1309.967	3144.7
1311.556	3146.15
1313.145	3146.27
1314.734	3142.22
1316.322	3139.2
1317.91	3144.03
1319.498	3142.85
1321.086	3141.74
1322.673	3141.16
1324.261	3139.47
1325.848	3138.69
1327.434	3139.71
1329.021	3138.8
1330.607	3139.45
1332.193	3139.17
1333.779	3143.19
1335.365	3141.74
1336.95	3141.6
1338.535	3143.4
1340.12	3144.28
1341.705	3143.52
1343.29	3137.93
1344.874	3141.35
1346.458	3141.99
1348.042	3141.23
1349.625	3139.54
1351.208	3142.55
1352.791	3142.55
1354.374	3141.25
1355.957	3141.44
1357.539	3140.03
1359.121	3139.89
1360.703	3140.4
1362.285	3141.72
1363.866	3139.38
1365.447	3137.51
1367.028	3142.62
1368.609	3139.31
1370.189	3137.4
1371.769	3136.12
1373.349	3137.44
1374.928	3132.2
1376.508	3131.04
1378.087	3127.92
1379.666	3126.03
1381.244	3124.53
1382.822	3124.73
1384.401	3125.29
1385.978	3124.41
1387.556	3122.56
1389.133	3122.72
1390.71	3120.32
1392.287	3120.58
1393.863	3120.78
1395.44	3123.72
1397.015	3121.11
1398.591	3121.85
1400.167	3119.35
1401.742	3125.8
1403.317	3123.46
1404.891	3122.98
1406.465	3123.09
1408.04	3118.13
1409.613	3113.3
1411.187	3116.37
1412.76	3117.27
1414.333	3118.77
1415.906	3117.34
1417.478	3117.18
1419.05	3110.57
1420.622	3113.55
1422.194	3115.61
1423.765	3117.57
1425.336	3113.41
1426.907	3116.42
1428.477	3115.05
1430.047	3114.8
1431.617	3115.65
1433.187	3119.61
1434.756	3117.57
1436.325	3115.65
1437.894	3111.98
1439.462	3113.07
1441.03	3111.43
1442.598	3116.19
1444.166	3114.61
1445.733	3112.07
1447.3	3110.16
1448.866	3111.38
1450.433	3110.09
1451.999	3110.78
1453.564	3107.94
1455.13	3109.72
1456.695	3106.39
1458.26	3106.21
1459.825	3105.54
1461.389	3108.84
1462.953	3105.49
1464.516	3106.44
1466.08	3105
1467.643	3107.5
1469.205	3107.24
1470.768	3110.39
1472.33	3110.39
1473.892	3109.95
1475.453	3109.79
1477.014	3112.56
1478.575	3114.48
1480.136	3117.2
1481.696	3118.29
1483.256	3119.19
1484.815	3117.5
1486.375	3122.05
1487.934	3124.06
1489.492	3127.39
1491.05	3123.44
1492.608	3128.78
1494.166	3127.71
1495.723	3127.28
1497.28	3128.41
1498.837	3128.85
1500.393	3126.98
1501.95	3128.11
1503.505	3126.98
1505.061	3125.4
1506.616	3128.69
1508.17	3130.12
1509.725	3129.61
1511.279	3128.52
1512.832	3124.13
1514.386	3129.4
1515.939	3128.87
1517.492	3128.13
1519.044	3126.28
1520.596	3129.79
1522.148	3131.34
1523.699	3132.82
1525.25	3130.39
1526.801	3132.54
1528.351	3135.11
1529.901	3134.62
1531.451	3133.4
1533	3134.46
1534.549	3134.46
1536.097	3137.93
1537.646	3134.55
1539.193	3131.83
1540.741	3130.79
1542.288	3133.01
1543.835	3127.23
1545.382	3127.48
1546.928	3126.42
1548.473	3127.81
1550.019	3122.45
1551.564	3115.63
1553.109	3113.04
1554.653	3110.06
1556.197	3108.61
1557.741	3103.34
1559.284	3102.49
1560.827	3100.78
1562.369	3100.13
1563.911	3097.66
1565.453	3094.79
1566.995	3095.25
1568.536	3090.19
1570.076	3088.51
1571.617	3083.82
1573.157	3083.61
1574.696	3086.84
1576.236	3085.39
1577.774	3083.03
1579.313	3082.76
1580.851	3084.26
1582.389	3084.16
1583.926	3080.33
1585.463	3078.11
1587	3078.3
1588.536	3079.59
1590.072	3076.56
1591.607	3080.19
1593.142	3076.45
1594.677	3078.57
1596.211	3076.91
1597.745	3077.23
1599.279	3074.3
1600.812	3078.37
1602.345	3073.95
1603.877	3074.32
1605.409	3067.41
1606.941	3070.16
1608.472	3070.95
1610.003	3067.48
1611.533	3067.99
1613.063	3069.05
1614.593	3061.27
1616.122	3064.57
1617.651	3061.89
1619.179	3064.2
1620.707	3061.01
1622.235	3064.25
1623.762	3059.4
1625.289	3059.14
1626.816	3055.95
1628.342	3060.39
1629.867	3054.38
1631.392	3049.65
1632.917	3049.07
1634.442	3044.7
1635.966	3040.98
1637.489	3041.38
1639.013	3036.59
1640.535	3032.99
1642.058	3028.69
1643.58	3023.52
1645.101	3017.19
1646.622	3016.4
1648.143	3007.74
1649.663	3007.16
1651.183	2997.76
1652.703	2999
1654.222	2993.14
1655.741	2985.26
1657.259	2979.69
1658.777	2977.03
1660.294	2970.73
1661.811	2964.67
1663.327	2960.88
1664.844	2956.61
1666.359	2952.98
1667.874	2950.21
1669.389	2944.53
1670.904	2946.84
1672.418	2937.55
1673.931	2939.03
1675.444	2933.28
1676.957	2933.34
1678.469	2934.82
1679.981	2933.97
1681.492	2932.21
1683.003	2931.61
1684.514	2927.57
1686.024	2928.89
1687.533	2924.17
1689.043	2925.54
1690.551	2918.42
1692.06	2920.15
1693.568	2916.64
1695.075	2921.03
1696.582	2917.56
1698.088	2917.34
1699.595	2916.07
1701.1	2916.5
1702.605	2913.61
1704.11	2910.97
1705.614	2910.88
