Data from COM3_NQ51A06081_21-20-29-213.txt Node
Date: Wed Jul 10 21:20:29 IDT 2019
User: han3-2
Spectrometer: NQ51A0608
Trigger mode: 0
Integration Time (sec): 5.000000E0
Scans to average: 3
Nonlinearity correction enabled: false
Boxcar width: 7
Storing dark spectrum: false
XAxis mode: Wavelengths
Number of Pixels in Spectrum: 512
>>>>>Begin Spectral Data<<<<<
898.623	2928.25
900.238	2935.35
901.852	2934.65
903.467	2939.69
905.081	2941.83
906.696	2944.08
908.31	2946.08
909.925	2952.82
911.54	2954.58
913.154	2961.6
914.769	2964.58
916.384	2971.19
917.998	2972.44
919.613	2979.51
921.228	2983.78
922.842	2989.67
924.457	2991.84
926.072	2999.56
927.686	3001.41
929.301	3005.54
930.916	3008.36
932.53	3014.09
934.145	3009.47
935.76	3017.03
937.374	3019.2
938.989	3022.94
940.604	3025.5
942.218	3025.71
943.833	3025.48
945.448	3030.75
947.062	3030.38
948.677	3032.69
950.291	3031.72
951.906	3032.71
953.521	3033.94
955.135	3034.79
956.75	3034.1
958.364	3039.46
959.979	3039.99
961.593	3044.66
963.208	3038.88
964.822	3041.63
966.437	3046.76
968.051	3049.05
969.666	3049
971.28	3053.9
972.895	3051.75
974.509	3056
976.123	3057.25
977.738	3060.71
979.352	3062.61
980.966	3062.72
982.58	3066.1
984.194	3067.58
985.809	3066.07
987.423	3074.55
989.037	3072.71
990.651	3075.04
992.265	3076.63
993.879	3079.1
995.493	3077.63
997.107	3081.51
998.721	3081.99
1000.335	3085.57
1001.948	3083.12
1003.562	3086.24
1005.176	3086.36
1006.79	3086.54
1008.403	3084.77
1010.017	3084.72
1011.63	3085.34
1013.244	3089.99
1014.857	3084.93
1016.471	3088.51
1018.084	3087.63
1019.697	3089.36
1021.311	3089.73
1022.924	3091.47
1024.537	3088.99
1026.15	3093.11
1027.763	3094.72
1029.376	3098.14
1030.989	3098.79
1032.602	3101.15
1034.215	3101.95
1035.828	3102.39
1037.44	3104.91
1039.053	3109.12
1040.666	3105.88
1042.278	3106.09
1043.89	3107.15
1045.503	3106.99
1047.115	3106.44
1048.727	3106.74
1050.34	3104.75
1051.952	3102.51
1053.564	3103.96
1055.176	3104.68
1056.788	3102.53
1058.4	3104.8
1060.011	3104.89
1061.623	3104.01
1063.235	3103.66
1064.846	3105.17
1066.458	3106.21
1068.069	3108.49
1069.68	3108.24
1071.292	3108.01
1072.903	3112.42
1074.514	3114.98
1076.125	3118.96
1077.736	3117.78
1079.347	3116.93
1080.957	3121.13
1082.568	3119.63
1084.179	3122.91
1085.789	3119.79
1087.399	3123.44
1089.01	3123.02
1090.62	3124.27
1092.23	3122.24
1093.84	3127
1095.45	3127.28
1097.06	3128.25
1098.67	3128.29
1100.279	3126.56
1101.889	3128.13
1103.498	3129.12
1105.108	3129.61
1106.717	3127.92
1108.326	3130.44
1109.935	3129.01
1111.544	3130.09
1113.153	3126.65
1114.762	3128.5
1116.371	3130.51
1117.979	3130.37
1119.588	3131.37
1121.196	3128.66
1122.804	3129.1
1124.412	3131.43
1126.02	3131.6
1127.628	3129.86
1129.236	3127.81
1130.844	3133.68
1132.451	3128.04
1134.059	3131.67
1135.666	3128.66
1137.273	3135.92
1138.88	3136.01
1140.487	3136.7
1142.094	3135.5
1143.701	3134.18
1145.307	3135.8
1146.914	3138.02
1148.52	3136.63
1150.126	3136.17
1151.733	3138.53
1153.339	3143.82
1154.944	3141.53
1156.55	3146.57
1158.156	3148.65
1159.761	3148.51
1161.367	3147.35
1162.972	3146.36
1164.577	3146.17
1166.182	3148.53
1167.787	3151.05
1169.391	3153.96
1170.996	3152.92
1172.6	3153.8
1174.205	3156.96
1175.809	3156.06
1177.413	3155.53
1179.017	3160.22
1180.62	3157.8
1182.224	3157.98
1183.827	3159.71
1185.431	3163.43
1187.034	3165.17
1188.637	3165.26
1190.24	3166.97
1191.842	3165.49
1193.445	3164.33
1195.047	3163.55
1196.649	3164.56
1198.252	3164.68
1199.854	3156.66
1201.455	3153.91
1203.057	3150.77
1204.658	3151.77
1206.26	3154.05
1207.861	3152.02
1209.462	3149.11
1211.063	3149.41
1212.664	3147.05
1214.264	3145.85
1215.864	3149.43
1217.465	3150.49
1219.065	3153.66
1220.665	3153.52
1222.264	3151.58
1223.864	3163.22
1225.463	3162.25
1227.062	3163.29
1228.661	3162.88
1230.26	3162.3
1231.859	3163.18
1233.458	3163.73
1235.056	3164.56
1236.654	3166.3
1238.252	3166.57
1239.85	3165.05
1241.448	3162.69
1243.045	3160.48
1244.642	3158.17
1246.24	3156.04
1247.837	3155.69
1249.433	3157.7
1251.03	3158.79
1252.626	3158.65
1254.223	3155.97
1255.819	3156.64
1257.414	3158
1259.01	3154.7
1260.606	3152.78
1262.201	3151.28
1263.796	3150.49
1265.391	3150.29
1266.986	3151.37
1268.58	3152.53
1270.174	3155.62
1271.769	3151.05
1273.362	3149.43
1274.956	3149.06
1276.55	3149.99
1278.143	3151
1279.736	3148.55
1281.329	3148.62
1282.922	3150.31
1284.515	3153.36
1286.107	3153.45
1287.699	3154.08
1289.291	3154.47
1290.883	3156.02
1292.474	3159.83
1294.066	3155.53
1295.657	3161.49
1297.248	3161.82
1298.838	3160.8
1300.429	3161.88
1302.019	3162.19
1303.609	3163.85
1305.199	3163.16
1306.789	3162.55
1308.378	3162.53
1309.967	3160.52
1311.556	3161.7
1313.145	3161.91
1314.734	3158.17
1316.322	3155.28
1317.91	3160.15
1319.498	3158.86
1321.086	3157.52
1322.673	3156.83
1324.261	3155.21
1325.848	3154.82
1327.434	3155.51
1329.021	3154.68
1330.607	3155.55
1332.193	3155.23
1333.779	3159.44
1335.365	3158.1
1336.95	3158.17
1338.535	3160.22
1340.12	3161.05
1341.705	3160.24
1343.29	3154.68
1344.874	3158.53
1346.458	3159.27
1348.042	3158.26
1349.625	3156.25
1351.208	3159.23
1352.791	3158.67
1354.374	3157.26
1355.957	3157.86
1357.539	3156.73
1359.121	3156.89
1360.703	3157.61
1362.285	3158.37
1363.866	3155.99
1365.447	3154.33
1367.028	3159.6
1368.609	3156.18
1370.189	3154.17
1371.769	3152.97
1373.349	3154.42
1374.928	3149.04
1376.508	3148.02
1378.087	3144.56
1379.666	3142.06
1381.244	3140.56
1382.822	3140.03
1384.401	3139.91
1385.978	3139.34
1387.556	3137.12
1389.133	3136.7
1390.71	3133.72
1392.287	3133.51
1393.863	3133.65
1395.44	3136.06
1397.015	3132.89
1398.591	3133.26
1400.167	3130.19
1401.742	3136.49
1403.317	3133.51
1404.891	3132.13
1406.465	3131.99
1408.04	3126.37
1409.613	3120.88
1411.187	3123.51
1412.76	3123.97
1414.333	3125.06
1415.906	3123.58
1417.478	3123.56
1419.05	3116.72
1420.622	3119.35
1422.194	3121.45
1423.765	3123.37
1425.336	3118.61
1426.907	3121.78
1428.477	3120.25
1430.047	3119.7
1431.617	3120.6
1433.187	3124.46
1434.756	3122.45
1436.325	3120.34
1437.894	3116.99
1439.462	3118.03
1441.03	3115.82
1442.598	3120.88
1444.166	3119.28
1445.733	3116.6
1447.3	3114.59
1448.866	3116.02
1450.433	3114.82
1451.999	3115.26
1453.564	3112.88
1455.13	3114.82
1456.695	3111.45
1458.26	3111.57
1459.825	3111.2
1461.389	3113.9
1462.953	3110.41
1464.516	3111.17
1466.08	3109.44
1467.643	3111.91
1469.205	3111.68
1470.768	3115.12
1472.33	3115.19
1473.892	3114.92
1475.453	3114.89
1477.014	3117.57
1478.575	3119.51
1480.136	3122.42
1481.696	3123.23
1483.256	3124.27
1484.815	3123.16
1486.375	3127.97
1487.934	3130.16
1489.492	3133.79
1491.05	3130.33
1492.608	3136.06
1494.166	3134.74
1495.723	3134.72
1497.28	3135.78
1498.837	3136.86
1500.393	3135.02
1501.95	3136.31
1503.505	3135.39
1505.061	3134.18
1506.616	3137.6
1508.17	3139.24
1509.725	3139.01
1511.279	3138.3
1512.832	3133.72
1514.386	3139.06
1515.939	3138.09
1517.492	3138.43
1519.044	3136.68
1520.596	3140.33
1522.148	3141.76
1523.699	3143.86
1525.25	3142.27
1526.801	3144.7
1528.351	3147.72
1529.901	3147.14
1531.451	3145.87
1533	3147.1
1534.549	3147.14
1536.097	3151.21
1537.646	3148.18
1539.193	3145.74
1540.741	3144.07
1542.288	3146.52
1543.835	3140.75
1545.382	3140.95
1546.928	3139.36
1548.473	3140.35
1550.019	3134.58
1551.564	3127.97
1553.109	3125.24
1554.653	3122.54
1556.197	3120.88
1557.741	3115.79
1559.284	3114.68
1560.827	3112.95
1562.369	3112.49
1563.911	3110.25
1565.453	3107.01
1566.995	3107.73
1568.536	3102.99
1570.076	3101.75
1571.617	3097.13
1573.157	3096.8
1574.696	3099.74
1576.236	3099.07
1577.774	3096.83
1579.313	3096.96
1580.851	3098.19
1582.389	3098.3
1583.926	3093.94
1585.463	3091.47
1587	3091.63
1588.536	3093.13
1590.072	3090.24
1591.607	3093.84
1593.142	3090.29
1594.677	3092.18
1596.211	3091
1597.745	3091.37
1599.279	3087.95
1600.812	3091.95
1602.345	3087.26
1603.877	3088.16
1605.409	3081.44
1606.941	3084.53
1608.472	3085.48
1610.003	3082.43
1611.533	3082.82
1613.063	3083.96
1614.593	3076.12
1616.122	3079.04
1617.651	3076.19
1619.179	3078.57
1620.707	3075.13
1622.235	3078.04
1623.762	3073.05
1625.289	3072.89
1626.816	3069.26
1628.342	3074.05
1629.867	3068.29
1631.392	3063.58
1632.917	3062.68
1634.442	3058.8
1635.966	3054.5
1637.489	3054.45
1639.013	3049.74
1640.535	3045.93
1642.058	3040.98
1643.58	3035.49
1645.101	3029.41
1646.622	3028.14
1648.143	3019.06
1649.663	3017.86
1651.183	3007.39
1652.703	3007.71
1654.222	3001.41
1655.741	2992.72
1657.259	2986.16
1658.777	2982.92
1660.294	2976.64
1661.811	2969.73
1663.327	2965.55
1664.844	2960.81
1666.359	2956.52
1667.874	2953.4
1669.389	2947.88
1670.904	2949.36
1672.418	2939.81
1673.931	2940.99
1675.444	2935.4
1676.957	2935.03
1678.469	2936.14
1679.981	2935.08
1681.492	2933.34
1683.003	2932.54
1684.514	2928.75
1686.024	2929.72
1687.533	2924.98
1689.043	2926.6
1690.551	2919.34
1692.06	2920.66
1693.568	2917.98
1695.075	2922.65
1696.582	2919.27
1698.088	2918.7
1699.595	2917.63
1701.1	2918.55
1702.605	2915.8
1704.11	2913.4
1705.614	2912.91
