Data from NQ51A06081_08-29-03-327.txt Node
Date: Tue Dec 18 08:29:03 IST 2018	
User: han3-2
Spectrometer: NQ51A0608
Trigger mode: 0
Integration Time (sec): 4.000000E-2
Scans to average: 20
Nonlinearity correction enabled: false
Boxcar width: 2
Storing dark spectrum: false
XAxis mode: Wavelengths
Number of Pixels in Spectrum: 512
>>>>>Begin Spectral Data<<<<<
898.623	2330.69
900.238	2331.43
901.852	2332.26
903.467	2334.04
905.081	2335.21
906.696	2336.04
908.31	2337.73
909.925	2336.41
911.54	2336.77
913.154	2337.71
914.769	2337.25
916.384	2336.38
917.998	2340.21
919.613	2339.87
921.228	2340.5
922.842	2340.58
924.457	2341.58
926.072	2338.79
927.686	2340.45
929.301	2338.74
930.916	2340.05
932.53	2339.93
934.145	2340.83
935.76	2340.79
937.374	2342.01
938.989	2340.74
940.604	2340.4
942.218	2339.01
943.833	2340.09
945.448	2339.93
947.062	2342.05
948.677	2340.67
950.291	2341.76
951.906	2338.24
953.521	2338.19
955.135	2337.44
956.75	2338.72
958.364	2336.51
959.979	2337.58
961.593	2336.62
963.208	2335.7
964.822	2333.16
966.437	2335.28
968.051	2333.54
969.666	2334.03
971.28	2333.03
972.895	2335.69
974.509	2334.03
976.123	2334.42
977.738	2332.29
979.352	2333.28
980.966	2330.35
982.58	2332.67
984.194	2332.87
985.809	2334.52
987.423	2330.75
989.037	2333.03
990.651	2330.44
992.265	2330.51
993.879	2329.58
995.493	2331.37
997.107	2328.71
998.721	2331.04
1000.335	2328
1001.948	2328.29
1003.562	2328.51
1005.176	2328.95
1006.79	2325.63
1008.403	2329.72
1010.017	2327.35
1011.63	2327.82
1013.244	2326.49
1014.857	2327.97
1016.471	2323.95
1018.084	2326.82
1019.697	2323.96
1021.311	2325.36
1022.924	2323.62
1024.537	2324.66
1026.15	2320.31
1027.763	2321.99
1029.376	2322.63
1030.989	2322.77
1032.602	2321.83
1034.215	2323.59
1035.828	2324.02
1037.44	2321.22
1039.053	2319.66
1040.666	2322.03
1042.278	2320.17
1043.89	2319.54
1045.503	2320.97
1047.115	2324.3
1048.727	2322.1
1050.34	2323.72
1051.952	2324.12
1053.564	2321.55
1055.176	2319.92
1056.788	2320.98
1058.4	2322.09
1060.011	2321.65
1061.623	2322.76
1063.235	2321.73
1064.846	2321.75
1066.458	2321.17
1068.069	2320.22
1069.68	2320.82
1071.292	2319.48
1072.903	2318.01
1074.514	2317.95
1076.125	2318.14
1077.736	2316.79
1079.347	2317.47
1080.957	2318.77
1082.568	2318.88
1084.179	2318.36
1085.789	2319.97
1087.399	2320.21
1089.01	2319.9
1090.62	2320.24
1092.23	2321.2
1093.84	2321.65
1095.45	2324.54
1097.06	2324.8
1098.67	2324.25
1100.279	2325.09
1101.889	2326.12
1103.498	2324.67
1105.108	2324.18
1106.717	2323.89
1108.326	2322.83
1109.935	2321.69
1111.544	2318.57
1113.153	2317.98
1114.762	2318.38
1116.371	2317.88
1117.979	2317.85
1119.588	2320.76
1121.196	2321.53
1122.804	2320.03
1124.412	2319.29
1126.02	2320.88
1127.628	2320.89
1129.236	2319.31
1130.844	2320.16
1132.451	2321.93
1134.059	2319.61
1135.666	2319.43
1137.273	2319.32
1138.88	2318.79
1140.487	2315.92
1142.094	2315.72
1143.701	2315.46
1145.307	2315.47
1146.914	2314.79
1148.52	2315.75
1150.126	2316.28
1151.733	2315.66
1153.339	2316.83
1154.944	2314.77
1156.55	2316.25
1158.156	2314.77
1159.761	2314.99
1161.367	2313.17
1162.972	2317.36
1164.577	2316.79
1166.182	2316.8
1167.787	2315.97
1169.391	2317.05
1170.996	2313.67
1172.6	2313.6
1174.205	2313.26
1175.809	2315
1177.413	2314.74
1179.017	2316.42
1180.62	2316.03
1182.224	2319.63
1183.827	2317.2
1185.431	2316.24
1187.034	2315.71
1188.637	2314.55
1190.24	2309.22
1191.842	2310.49
1193.445	2312.43
1195.047	2311.44
1196.649	2313.13
1198.252	2318.26
1199.854	2317.38
1201.455	2317.48
1203.057	2318.02
1204.658	2316.51
1206.26	2311.99
1207.861	2313.74
1209.462	2310.7
1211.063	2310.48
1212.664	2310.81
1214.264	2312.48
1215.864	2310.02
1217.465	2310.31
1219.065	2312.15
1220.665	2309.93
1222.264	2311.14
1223.864	2311
1225.463	2310.71
1227.062	2310.58
1228.661	2314.24
1230.26	2311.97
1231.859	2314.08
1233.458	2316.23
1235.056	2313.09
1236.654	2311.32
1238.252	2311.91
1239.85	2310.04
1241.448	2310.16
1243.045	2311.66
1244.642	2312.12
1246.24	2315.05
1247.837	2314.58
1249.433	2314.52
1251.03	2314.52
1252.626	2312.88
1254.223	2309.48
1255.819	2310.86
1257.414	2310.79
1259.01	2312.3
1260.606	2314.85
1262.201	2315.06
1263.796	2313.92
1265.391	2312.5
1266.986	2310.88
1268.58	2308.61
1270.174	2308.59
1271.769	2309.3
1273.362	2308.36
1274.956	2310.31
1276.55	2311.08
1278.143	2310.7
1279.736	2310.64
1281.329	2310.27
1282.922	2307.44
1284.515	2306.26
1286.107	2305.86
1287.699	2304.51
1289.291	2305.87
1290.883	2306.83
1292.474	2307.32
1294.066	2307.21
1295.657	2308.36
1297.248	2308.06
1298.838	2308.19
1300.429	2308.91
1302.019	2308.81
1303.609	2311.35
1305.199	2310.96
1306.789	2310.13
1308.378	2309.04
1309.967	2309.03
1311.556	2307.69
1313.145	2308.41
1314.734	2307.98
1316.322	2308.74
1317.91	2310.77
1319.498	2309.82
1321.086	2310.77
1322.673	2310.83
1324.261	2310.86
1325.848	2309.49
1327.434	2309.99
1329.021	2307.9
1330.607	2309.46
1332.193	2308.59
1333.779	2309.78
1335.365	2308.35
1336.95	2309.05
1338.535	2307.15
1340.12	2308.19
1341.705	2311.56
1343.29	2312.32
1344.874	2313.31
1346.458	2315.87
1348.042	2315.48
1349.625	2310.5
1351.208	2310.22
1352.791	2309.7
1354.374	2308.22
1355.957	2308.06
1357.539	2307.3
1359.121	2307.2
1360.703	2306.35
1362.285	2306.28
1363.866	2304.99
1365.447	2307.18
1367.028	2308.25
1368.609	2309.44
1370.189	2309.9
1371.769	2310.28
1373.349	2307.45
1374.928	2306.48
1376.508	2303.85
1378.087	2304.04
1379.666	2307.64
1381.244	2308.69
1382.822	2306.73
1384.401	2309.14
1385.978	2306.78
1387.556	2304.06
1389.133	2305.22
1390.71	2309.05
1392.287	2309.53
1393.863	2311.23
1395.44	2310.97
1397.015	2312.26
1398.591	2309.91
1400.167	2309.13
1401.742	2307.63
1403.317	2307.1
1404.891	2305.41
1406.465	2307.15
1408.04	2305.98
1409.613	2310.02
1411.187	2309.14
1412.76	2309.71
1414.333	2308.55
1415.906	2309.56
1417.478	2306.37
1419.05	2307.93
1420.622	2307.66
1422.194	2307.3
1423.765	2307.77
1425.336	2308.34
1426.907	2306.61
1428.477	2306.86
1430.047	2307.77
1431.617	2310.5
1433.187	2309.91
1434.756	2310.58
1436.325	2308.36
1437.894	2308.07
1439.462	2304.65
1441.03	2307.41
1442.598	2308.11
1444.166	2308.21
1445.733	2309.04
1447.3	2309.7
1448.866	2305.85
1450.433	2307.83
1451.999	2310.22
1453.564	2308.9
1455.13	2307.93
1456.695	2309.62
1458.26	2308.19
1459.825	2308
1461.389	2307.37
1462.953	2308.86
1464.516	2308.36
1466.08	2308.43
1467.643	2309.04
1469.205	2310.67
1470.768	2309.38
1472.33	2310.13
1473.892	2309.59
1475.453	2308.88
1477.014	2307.46
1478.575	2308.37
1480.136	2307.96
1481.696	2308.1
1483.256	2308.48
1484.815	2309.04
1486.375	2307.8
1487.934	2307.37
1489.492	2308.3
1491.05	2306.13
1492.608	2304.66
1494.166	2304.63
1495.723	2305.83
1497.28	2307.21
1498.837	2307.5
1500.393	2311.33
1501.95	2312.6
1503.505	2310.54
1505.061	2309.43
1506.616	2309.38
1508.17	2307.03
1509.725	2306.51
1511.279	2307.43
1512.832	2307.18
1514.386	2307.35
1515.939	2307.47
1517.492	2308.3
1519.044	2309.08
1520.596	2307.8
1522.148	2309.36
1523.699	2309.89
1525.25	2308.15
1526.801	2308.22
1528.351	2311.15
1529.901	2310.98
1531.451	2311.01
1533	2311.09
1534.549	2312.1
1536.097	2309.81
1537.646	2309.18
1539.193	2307.87
1540.741	2308.25
1542.288	2307.25
1543.835	2307.5
1545.382	2306.11
1546.928	2306.89
1548.473	2307.15
1550.019	2306.84
1551.564	2306.03
1553.109	2308.59
1554.653	2308.16
1556.197	2309.41
1557.741	2309.31
1559.284	2308.72
1560.827	2307.46
1562.369	2307.58
1563.911	2307.64
1565.453	2307.77
1566.995	2309.7
1568.536	2312.43
1570.076	2312.19
1571.617	2309.14
1573.157	2307.01
1574.696	2307.43
1576.236	2304.12
1577.774	2306.26
1579.313	2308.37
1580.851	2310.1
1582.389	2309.86
1583.926	2309.45
1585.463	2306.9
1587	2307.47
1588.536	2307.22
1590.072	2304.96
1591.607	2305.17
1593.142	2306.41
1594.677	2306.48
1596.211	2305.82
1597.745	2306.43
1599.279	2308.26
1600.812	2308.1
1602.345	2307.11
1603.877	2307.39
1605.409	2307.5
1606.941	2307.68
1608.472	2307.72
1610.003	2307.07
1611.533	2307.18
1613.063	2306.24
1614.593	2305.6
1616.122	2304.88
1617.651	2306.06
1619.179	2306.42
1620.707	2307.62
1622.235	2308.04
1623.762	2307.78
1625.289	2308.25
1626.816	2308.37
1628.342	2308.96
1629.867	2308.57
1631.392	2309.87
1632.917	2309.52
1634.442	2310.03
1635.966	2311.61
1637.489	2312.11
1639.013	2310.83
1640.535	2307.36
1642.058	2307.1
1643.58	2304.92
1645.101	2305.63
1646.622	2305.86
1648.143	2310.55
1649.663	2309.88
1651.183	2312.16
1652.703	2311.66
1654.222	2311.39
1655.741	2310.22
1657.259	2312.27
1658.777	2311.54
1660.294	2311.35
1661.811	2311.32
1663.327	2309.31
1664.844	2308.39
1666.359	2308.06
1667.874	2306.76
1669.389	2308.59
1670.904	2310.3
1672.418	2310.7
1673.931	2308.9
1675.444	2309.56
1676.957	2307.03
1678.469	2304.98
1679.981	2304.1
1681.492	2305.63
1683.003	2307.03
1684.514	2307.24
1686.024	2309.14
1687.533	2308.59
1689.043	2307.12
1690.551	2305.62
1692.06	2306.53
1693.568	2307.4
1695.075	2308.42
1696.582	2310.03
1698.088	2309.29
1699.595	2309.08
1701.1	2306.32
1702.605	2304.85
1704.11	2303.07
1705.614	2302.4