Data from Oil_NQ51A06081_19-14-40-697.txt Node
Date: Mon Jun 24 19:14:40 IDT 2019
User: han3-2
Spectrometer: NQ51A0608
Trigger mode: 0
Integration Time (sec): 5.000000E0
Scans to average: 3
Nonlinearity correction enabled: false
Boxcar width: 7
Storing dark spectrum: false
XAxis mode: Wavelengths
Number of Pixels in Spectrum: 512
>>>>>Begin Spectral Data<<<<<
898.623	3084.93
900.238	3091.99
901.852	3092.05
903.467	3098.09
905.081	3101.31
906.696	3105.15
908.31	3108.58
909.925	3117.09
911.54	3123.07
913.154	3133.35
914.769	3140.75
916.384	3151.7
917.998	3157.52
919.613	3169.74
921.228	3179.67
922.842	3191.8
924.457	3201.83
926.072	3217.5
927.686	3228.98
929.301	3242.38
930.916	3254.95
932.53	3270.98
934.145	3276.96
935.76	3294.73
937.374	3308.55
938.989	3322.87
940.604	3336.55
942.218	3347.01
943.833	3358.06
945.448	3373.33
947.062	3383.38
948.677	3394.24
950.291	3401.54
951.906	3409.09
953.521	3417.55
955.135	3424.11
956.75	3428.82
958.364	3438.99
959.979	3444.09
961.593	3452.07
963.208	3449.48
964.822	3454.75
966.437	3463.92
968.051	3468.01
969.666	3471.45
971.28	3477.9
972.895	3478.45
974.509	3484.34
976.123	3487.76
977.738	3492.91
979.352	3497.33
980.966	3498.87
982.58	3503.84
984.194	3505.69
985.809	3505.5
987.423	3514.61
989.037	3514.38
990.651	3516.69
992.265	3519.18
993.879	3521.35
995.493	3520.2
997.107	3523.5
998.721	3524.96
1000.335	3528.4
1001.948	3525.88
1003.562	3528.05
1005.176	3528.56
1006.79	3528.24
1008.403	3526.81
1010.017	3525.9
1011.63	3526.83
1013.244	3530.83
1014.857	3526
1016.471	3529.25
1018.084	3528.82
1019.697	3530.43
1021.311	3531.77
1022.924	3533.11
1024.537	3531.06
1026.15	3535.24
1027.763	3538.06
1029.376	3542.1
1030.989	3544.06
1032.602	3547.14
1034.215	3549.96
1035.828	3552.22
1037.44	3557.05
1039.053	3562.55
1040.666	3562.27
1042.278	3565
1043.89	3569.82
1045.503	3572.87
1047.115	3576.73
1048.727	3580.8
1050.34	3583.43
1051.952	3585.4
1053.564	3591.8
1055.176	3597.11
1056.788	3600.04
1058.4	3607.02
1060.011	3611.11
1061.623	3613.91
1063.235	3618.57
1064.846	3623.84
1066.458	3629.2
1068.069	3634.72
1069.68	3638.07
1071.292	3640.45
1072.903	3648.68
1074.514	3654.24
1076.125	3661.57
1077.736	3662.56
1079.347	3664.25
1080.957	3670.6
1082.568	3671.67
1084.179	3677.16
1085.789	3676.82
1087.399	3682.32
1089.01	3684.35
1090.62	3686.77
1092.23	3686.84
1093.84	3692.64
1095.45	3694.81
1097.06	3695.97
1098.67	3697.29
1100.279	3695.37
1101.889	3697.17
1103.498	3698
1105.108	3698.51
1106.717	3695.58
1108.326	3697.49
1109.935	3694.24
1111.544	3693.8
1113.153	3687.28
1114.762	3687.17
1116.371	3684.74
1117.979	3681.18
1119.588	3676.98
1121.196	3668.82
1122.804	3661.89
1124.412	3656.56
1126.02	3647.61
1127.628	3636.5
1129.236	3623.26
1130.844	3617.53
1132.451	3598.36
1134.059	3588.93
1135.666	3571.12
1137.273	3563.49
1138.88	3546.79
1140.487	3532.44
1142.094	3514.79
1143.701	3498.64
1145.307	3485.64
1146.914	3473.67
1148.52	3459.2
1150.126	3447.35
1151.733	3438.62
1153.339	3434.41
1154.944	3423.05
1156.55	3421.66
1158.156	3417.57
1159.761	3412.77
1161.367	3408.17
1162.972	3405.35
1164.577	3402.95
1166.182	3404.61
1167.787	3405.93
1169.391	3407.98
1170.996	3406.69
1172.6	3407.73
1174.205	3411.1
1175.809	3410.69
1177.413	3410.66
1179.017	3416.14
1180.62	3413.88
1182.224	3414.75
1183.827	3416.35
1185.431	3420.55
1187.034	3421.82
1188.637	3422.12
1190.24	3423.51
1191.842	3422.42
1193.445	3421.96
1195.047	3421.55
1196.649	3422.4
1198.252	3422.56
1199.854	3413.94
1201.455	3411.31
1203.057	3408.15
1204.658	3409.3
1206.26	3411.01
1207.861	3408.93
1209.462	3405.77
1211.063	3406.74
1212.664	3404.5
1214.264	3403.66
1215.864	3407.01
1217.465	3408.31
1219.065	3412.4
1220.665	3413.53
1222.264	3412.67
1223.864	3426.58
1225.463	3427.34
1227.062	3430.46
1228.661	3432.2
1230.26	3434.97
1231.859	3439.8
1233.458	3444.93
1235.056	3450.15
1236.654	3457.03
1238.252	3462.86
1239.85	3467.89
1241.448	3471.84
1243.045	3476.51
1244.642	3481.36
1246.24	3487.07
1247.837	3494.46
1249.433	3505.37
1251.03	3514.93
1252.626	3523.94
1254.223	3529.74
1255.819	3539.42
1257.414	3548.64
1259.01	3554
1260.606	3560.07
1262.201	3566.77
1263.796	3573.45
1265.391	3580.73
1266.986	3588.86
1268.58	3597.62
1270.174	3607.3
1271.769	3609.38
1273.362	3613.12
1274.956	3619.1
1276.55	3625
1278.143	3631.56
1279.736	3633.59
1281.329	3638.53
1282.922	3643.96
1284.515	3652.37
1286.107	3656.42
1287.699	3661.29
1289.291	3665.59
1290.883	3671.36
1292.474	3678.16
1294.066	3678.02
1295.657	3687.24
1297.248	3691.97
1298.838	3693.75
1300.429	3698.9
1302.019	3702.65
1303.609	3708.35
1305.199	3711.1
1306.789	3715.4
1308.378	3718.24
1309.967	3720.16
1311.556	3724.13
1313.145	3728.06
1314.734	3726.33
1316.322	3725.84
1317.91	3731.57
1319.498	3732.38
1321.086	3731.48
1322.673	3731.9
1324.261	3730.07
1325.848	3729.22
1327.434	3728.68
1329.021	3727.02
1330.607	3725.08
1332.193	3722.38
1333.779	3722.35
1335.365	3716.99
1336.95	3710.89
1338.535	3707.34
1340.12	3700.54
1341.705	3691.33
1343.29	3674.62
1344.874	3666.51
1346.458	3653.81
1348.042	3638.63
1349.625	3621.37
1351.208	3609.22
1352.791	3592.58
1354.374	3575.53
1355.957	3559.8
1357.539	3543.35
1359.121	3527.78
1360.703	3513.8
1362.285	3500.38
1363.866	3485.5
1365.447	3471.8
1367.028	3466.9
1368.609	3454.26
1370.189	3444.46
1371.769	3436.52
1373.349	3432.75
1374.928	3422.33
1376.508	3417.25
1378.087	3410.43
1379.666	3405.63
1381.244	3401.82
1382.822	3400.52
1384.401	3399.97
1385.978	3398.97
1387.556	3396.55
1389.133	3396.85
1390.71	3394.75
1392.287	3395.99
1393.863	3397.59
1395.44	3402.42
1397.015	3400.82
1398.591	3403.55
1400.167	3402.72
1401.742	3411.08
1403.317	3409.83
1404.891	3411.29
1406.465	3412.58
1408.04	3408.54
1409.613	3404.26
1411.187	3408.84
1412.76	3410.66
1414.333	3413.11
1415.906	3413.27
1417.478	3414.82
1419.05	3408.56
1420.622	3412.65
1422.194	3415.15
1423.765	3417.87
1425.336	3414.06
1426.907	3418.59
1428.477	3417.18
1430.047	3417.66
1431.617	3419.72
1433.187	3425.15
1434.756	3422.59
1436.325	3421.27
1437.894	3418.47
1439.462	3419.81
1441.03	3417.76
1442.598	3423.51
1444.166	3422.03
1445.733	3420.07
1447.3	3418.17
1448.866	3420.07
1450.433	3418.57
1451.999	3419.72
1453.564	3417.2
1455.13	3419.21
1456.695	3415.33
1458.26	3416.79
1459.825	3416.19
1461.389	3419.67
1462.953	3417.2
1464.516	3418.87
1466.08	3417.62
1467.643	3421.29
1469.205	3422.29
1470.768	3427.65
1472.33	3428.38
1473.892	3430.02
1475.453	3431.18
1477.014	3436.17
1478.575	3440.07
1480.136	3445.39
1481.696	3448.35
1483.256	3452.5
1484.815	3452.8
1486.375	3459.34
1487.934	3463.76
1489.492	3469.99
1491.05	3468.47
1492.608	3475.86
1494.166	3475.47
1495.723	3477.13
1497.28	3479.17
1498.837	3481.96
1500.393	3480.9
1501.95	3483.23
1503.505	3482.68
1505.061	3481.57
1506.616	3484.85
1508.17	3487.18
1509.725	3486.42
1511.279	3485.57
1512.832	3480.55
1514.386	3485.4
1515.939	3483.69
1517.492	3483.49
1519.044	3480.95
1520.596	3483.88
1522.148	3484.11
1523.699	3485.82
1525.25	3482.84
1526.801	3485.01
1528.351	3488.06
1529.901	3487.67
1531.451	3486.49
1533	3488.99
1534.549	3489.66
1536.097	3495.06
1537.646	3493.21
1539.193	3492.82
1540.741	3493.24
1542.288	3498.13
1543.835	3494.3
1545.382	3496.59
1546.928	3496.66
1548.473	3500.47
1550.019	3496.19
1551.564	3490.79
1553.109	3489.19
1554.653	3487.32
1556.197	3485.31
1557.741	3479.86
1559.284	3477.76
1560.827	3475.49
1562.369	3473.9
1563.911	3470.99
1565.453	3466.97
1566.995	3467.59
1568.536	3462.55
1570.076	3461.31
1571.617	3455.79
1573.157	3455.51
1574.696	3458.19
1576.236	3457.19
1577.774	3454.03
1579.313	3454.38
1580.851	3455.9
1582.389	3456.06
1583.926	3451.53
1585.463	3448.85
1587	3447.65
1588.536	3447.68
1590.072	3442.06
1591.607	3442.99
1593.142	3435.5
1594.677	3434.48
1596.211	3429.01
1597.745	3424.62
1599.279	3416.46
1600.812	3416.14
1602.345	3406.46
1603.877	3402.42
1605.409	3390.43
1606.941	3388.65
1608.472	3384.44
1610.003	3376.24
1611.533	3371.13
1613.063	3367.53
1614.593	3354.45
1616.122	3353.04
1617.651	3344.45
1619.179	3341.63
1620.707	3333.73
1622.235	3332.16
1623.762	3322.06
1625.289	3316.66
1626.816	3307.25
1628.342	3305.98
1629.867	3293.32
1631.392	3281.45
1632.917	3273.08
1634.442	3261.09
1635.966	3249.01
1637.489	3240.48
1639.013	3226.41
1640.535	3214.15
1642.058	3200.63
1643.58	3185.87
1645.101	3169.42
1646.622	3158.95
1648.143	3140.75
1649.663	3130.81
1651.183	3111.84
1652.703	3104.29
1654.222	3090.13
1655.741	3074.07
1657.259	3061.43
1658.777	3051.73
1660.294	3039.64
1661.811	3028.21
1663.327	3019.27
1664.844	3010.67
1666.359	3003.12
1667.874	2997.25
1669.389	2989.09
1670.904	2987.96
1672.418	2976.04
1673.931	2975.35
1675.444	2967.21
1676.957	2965.25
1678.469	2964.9
1679.981	2962.48
1681.492	2959.61
1683.003	2957.83
1684.514	2952.66
1686.024	2952.73
1687.533	2946.68
1689.043	2946.88
1690.551	2938.8
1692.06	2939.1
1693.568	2935.82
1695.075	2939.47
1696.582	2935.48
1698.088	2934.93
1699.595	2933.46
1701.1	2934.24
1702.605	2930.8
1704.11	2927.68
1705.614	2927.12
