Data from TapWater_NQ51A06081_19-00-10-015.txt Node
Date: Mon Jun 24 19:00:10 IDT 2019
User: han3-2
Spectrometer: NQ51A0608
Trigger mode: 0
Integration Time (sec): 5.000000E0
Scans to average: 3
Nonlinearity correction enabled: false
Boxcar width: 7
Storing dark spectrum: false
XAxis mode: Wavelengths
Number of Pixels in Spectrum: 512
>>>>>Begin Spectral Data<<<<<
898.623	3129.51
900.238	3137
901.852	3138.46
903.467	3145.6
905.081	3150.11
906.696	3155.18
908.31	3160.15
909.925	3170.25
911.54	3178.01
913.154	3190.3
914.769	3198.97
916.384	3211.07
917.998	3217.52
919.613	3229.19
921.228	3238.1
922.842	3247.69
924.457	3253.72
926.072	3263.52
927.686	3267.08
929.301	3271.74
930.916	3273.84
932.53	3278.44
934.145	3270.96
935.76	3274.17
937.374	3271.74
938.989	3269.76
940.604	3266.59
942.218	3260.38
943.833	3254.11
945.448	3252.22
947.062	3245.24
948.677	3240.81
950.291	3233.99
951.906	3229.21
953.521	3225.47
955.135	3221.58
956.75	3215.76
958.364	3217.68
959.979	3215.67
961.593	3217.56
963.208	3209.78
964.822	3210.56
966.437	3215.12
968.051	3216.34
969.666	3216.41
971.28	3221.52
972.895	3220.64
974.509	3225.49
976.123	3227.34
977.738	3232.05
979.352	3235.72
980.966	3237.34
982.58	3241.94
984.194	3244.32
985.809	3244.69
987.423	3255.38
989.037	3256.4
990.651	3261.11
992.265	3265.48
993.879	3270.86
995.493	3272.71
997.107	3279.34
998.721	3283.8
1000.335	3291.91
1001.948	3293.32
1003.562	3300.64
1005.176	3306.26
1006.79	3311.36
1008.403	3315.06
1010.017	3320.49
1011.63	3326.71
1013.244	3336.99
1014.857	3338.4
1016.471	3348.22
1018.084	3354.36
1019.697	3362.79
1021.311	3370.51
1022.924	3379.08
1024.537	3383.89
1026.15	3395.49
1027.763	3405.35
1029.376	3416.28
1030.989	3425.17
1032.602	3435.11
1034.215	3444.19
1035.828	3452.55
1037.44	3462.92
1039.053	3474.11
1040.666	3479.12
1042.278	3486.54
1043.89	3495.45
1045.503	3502.62
1047.115	3509.71
1048.727	3516.22
1050.34	3520.61
1051.952	3523.94
1053.564	3531.2
1055.176	3536.76
1056.788	3539.91
1058.4	3546.31
1060.011	3550.16
1061.623	3552.54
1063.235	3555.5
1064.846	3558.71
1066.458	3561.97
1068.069	3564.49
1069.68	3564.7
1071.292	3563.63
1072.903	3568.21
1074.514	3569.94
1076.125	3572.16
1077.736	3568.51
1079.347	3565.48
1080.957	3566.36
1082.568	3561.9
1084.179	3561.55
1085.789	3554.62
1087.399	3553.51
1089.01	3548.96
1090.62	3545.06
1092.23	3539.03
1093.84	3538.82
1095.45	3534.38
1097.06	3529.67
1098.67	3524.82
1100.279	3517.61
1101.889	3514.42
1103.498	3509.82
1105.108	3505.48
1106.717	3498.25
1108.326	3495.73
1109.935	3489.1
1111.544	3485.43
1113.153	3476.07
1114.762	3472.54
1116.371	3467.87
1117.979	3461.86
1119.588	3455.76
1121.196	3446.2
1122.804	3438.43
1124.412	3433.33
1126.02	3425.24
1127.628	3415.56
1129.236	3405.44
1130.844	3403.89
1132.451	3390.29
1134.059	3387.05
1135.666	3377.26
1137.273	3378.73
1138.88	3372.91
1140.487	3369.26
1142.094	3363.14
1143.701	3359.12
1145.307	3358.01
1146.914	3358.7
1148.52	3355.7
1150.126	3354.82
1151.733	3357.57
1153.339	3363.23
1154.944	3360.62
1156.55	3366.72
1158.156	3369.29
1159.761	3370.16
1161.367	3369.96
1162.972	3370.05
1164.577	3370.35
1166.182	3374.23
1167.787	3377.3
1169.391	3380.77
1170.996	3380.31
1172.6	3382.22
1174.205	3385.69
1175.809	3385.3
1177.413	3385
1179.017	3390.47
1180.62	3388.44
1182.224	3389.2
1183.827	3390.63
1185.431	3394.45
1187.034	3396.22
1188.637	3396.52
1190.24	3397.96
1191.842	3396.66
1193.445	3396.04
1195.047	3395.21
1196.649	3396.02
1198.252	3396.5
1199.854	3388.14
1201.455	3385.76
1203.057	3383.24
1204.658	3383.96
1206.26	3385.62
1207.861	3384.19
1209.462	3381.48
1211.063	3382.45
1212.664	3380.47
1214.264	3379.29
1215.864	3382.48
1217.465	3383.03
1219.065	3386.47
1220.665	3386.5
1222.264	3384.46
1223.864	3396.62
1225.463	3394.98
1227.062	3394.98
1228.661	3394.58
1230.26	3394.4
1231.859	3394.45
1233.458	3394.95
1235.056	3395
1236.654	3396.22
1238.252	3395.92
1239.85	3394.7
1241.448	3392.39
1243.045	3390.06
1244.642	3387.7
1246.24	3385.46
1247.837	3384.28
1249.433	3386.84
1251.03	3388.09
1252.626	3388.05
1254.223	3384.93
1255.819	3385.64
1257.414	3386.27
1259.01	3382.82
1260.606	3380.84
1262.201	3379.4
1263.796	3377.97
1265.391	3377.37
1266.986	3378
1268.58	3379.06
1270.174	3381.72
1271.769	3377.21
1273.362	3375.29
1274.956	3375.02
1276.55	3375.52
1278.143	3376.22
1279.736	3373.61
1281.329	3373.35
1282.922	3374.51
1284.515	3377.74
1286.107	3377.49
1287.699	3378.06
1289.291	3378.48
1290.883	3380.17
1292.474	3383.42
1294.066	3379.13
1295.657	3385.07
1297.248	3385.78
1298.838	3384.51
1300.429	3385.53
1302.019	3386.13
1303.609	3388.05
1305.199	3387.12
1306.789	3387.38
1308.378	3387.24
1309.967	3385.87
1311.556	3387.35
1313.145	3388.02
1314.734	3384.56
1316.322	3382.11
1317.91	3387.14
1319.498	3385.92
1321.086	3384.79
1322.673	3384.88
1324.261	3383.47
1325.848	3383.52
1327.434	3384.33
1329.021	3384.7
1330.607	3385.62
1332.193	3385.5
1333.779	3389.76
1335.365	3388.3
1336.95	3388.16
1338.535	3389.85
1340.12	3390.84
1341.705	3389.85
1343.29	3384.26
1344.874	3387.49
1346.458	3387.75
1348.042	3386.68
1349.625	3384.07
1351.208	3387.12
1352.791	3386.54
1354.374	3385.04
1355.957	3385.04
1357.539	3383.68
1359.121	3383.82
1360.703	3384.6
1362.285	3385.62
1363.866	3383.63
1365.447	3382.18
1367.028	3387.51
1368.609	3383.86
1370.189	3381.69
1371.769	3380.12
1373.349	3381.78
1374.928	3375.92
1376.508	3374.78
1378.087	3371.3
1379.666	3369.98
1381.244	3368.64
1382.822	3369.08
1384.401	3369.54
1385.978	3370.07
1387.556	3368.11
1389.133	3368.68
1390.71	3366.93
1392.287	3368.55
1393.863	3369.89
1395.44	3375.18
1397.015	3374
1398.591	3376.82
1400.167	3375.43
1401.742	3384.03
1403.317	3382.25
1404.891	3383.22
1406.465	3384.58
1408.04	3380.91
1409.613	3376.63
1411.187	3381.41
1412.76	3383.79
1414.333	3386.43
1415.906	3386.1
1417.478	3387.88
1419.05	3381.48
1420.622	3384.93
1422.194	3387.42
1423.765	3390.63
1425.336	3386.71
1426.907	3390.84
1428.477	3389.85
1430.047	3390.36
1431.617	3391.58
1433.187	3396.2
1434.756	3393.75
1436.325	3391.42
1437.894	3388.16
1439.462	3389.34
1441.03	3386.64
1442.598	3391.79
1444.166	3390.61
1445.733	3388.05
1447.3	3385.27
1448.866	3386.27
1450.433	3384.44
1451.999	3384.79
1453.564	3381.23
1455.13	3382.66
1456.695	3377.93
1458.26	3377.35
1459.825	3375.62
1461.389	3377.88
1462.953	3373.21
1464.516	3373.4
1466.08	3370.14
1467.643	3370.86
1469.205	3369.47
1470.768	3371.85
1472.33	3370.49
1473.892	3368.73
1475.453	3367.04
1477.014	3368.59
1478.575	3369.63
1480.136	3371.78
1481.696	3371.6
1483.256	3372.27
1484.815	3369.12
1486.375	3373.24
1487.934	3374.16
1489.492	3376.89
1491.05	3372.4
1492.608	3377.09
1494.166	3374.41
1495.723	3372.77
1497.28	3372.8
1498.837	3372.5
1500.393	3369.63
1501.95	3369.72
1503.505	3367.44
1505.061	3364.94
1506.616	3366.98
1508.17	3367.78
1509.725	3365.98
1511.279	3364.11
1512.832	3358.73
1514.386	3362.72
1515.939	3360.04
1517.492	3359.14
1519.044	3356.46
1520.596	3359.24
1522.148	3359.81
1523.699	3360.78
1525.25	3357.34
1526.801	3358.68
1528.351	3361.04
1529.901	3359.88
1531.451	3357.34
1533	3357.41
1534.549	3356.58
1536.097	3359.26
1537.646	3355.31
1539.193	3352.7
1540.741	3350.76
1542.288	3352.88
1543.835	3346.16
1545.382	3345.58
1546.928	3343.2
1548.473	3343.94
1550.019	3337.54
1551.564	3330.15
1553.109	3326.59
1554.653	3323.42
1556.197	3321.14
1557.741	3315.08
1559.284	3313.63
1560.827	3311.53
1562.369	3309.98
1563.911	3306.74
1565.453	3302.65
1566.995	3302.93
1568.536	3297.5
1570.076	3295.47
1571.617	3289.67
1573.157	3288.54
1574.696	3290.36
1576.236	3288.42
1577.774	3284.8
1579.313	3284.1
1580.851	3284.29
1582.389	3283.04
1583.926	3277.68
1585.463	3274.72
1587	3273.98
1588.536	3274.45
1590.072	3270.26
1591.607	3272.9
1593.142	3267.88
1594.677	3269.55
1596.211	3267.35
1597.745	3266.89
1599.279	3262.62
1600.812	3266.36
1602.345	3260.75
1603.877	3260.91
1605.409	3252.89
1606.941	3255.04
1608.472	3254.99
1610.003	3251.09
1611.533	3250.35
1613.063	3250.53
1614.593	3241.78
1616.122	3244.46
1617.651	3240.46
1619.179	3242.29
1620.707	3237.69
1622.235	3239.61
1623.762	3233.14
1625.289	3231.89
1626.816	3226.55
1628.342	3230.18
1629.867	3222.05
1631.392	3214.7
1632.917	3210.73
1634.442	3203.56
1635.966	3195.92
1637.489	3191.9
1639.013	3182.24
1640.535	3173.48
1642.058	3163.27
1643.58	3152.48
1645.101	3140.79
1646.622	3133.61
1648.143	3118.59
1649.663	3111.84
1651.183	3095.44
1652.703	3090.4
1654.222	3078.27
1655.741	3064.53
1657.259	3053.16
1658.777	3045.19
1660.294	3034.05
1661.811	3023.45
1663.327	3015.48
1664.844	3007.41
1666.359	3000.23
1667.874	2993.85
1669.389	2985.9
1670.904	2984.84
1672.418	2973.45
1673.931	2972.81
1675.444	2965.02
1676.957	2963.29
1678.469	2963.03
1679.981	2960.72
1681.492	2957.51
1683.003	2955.82
1684.514	2951.09
1686.024	2951
1687.533	2945.38
1689.043	2945.8
1690.551	2937.87
1692.06	2938.52
1693.568	2935.17
1695.075	2939.07
1696.582	2935.18
1698.088	2934.67
1699.595	2933.26
1701.1	2933.64
1702.605	2930.39
1704.11	2927.92
1705.614	2927.34
