Data from TapWater_NQ51A06081_19-03-40-184.txt Node
Date: Mon Jun 24 19:03:40 IDT 2019
User: han3-2
Spectrometer: NQ51A0608
Trigger mode: 0
Integration Time (sec): 5.000000E0
Scans to average: 3
Nonlinearity correction enabled: false
Boxcar width: 7
Storing dark spectrum: false
XAxis mode: Wavelengths
Number of Pixels in Spectrum: 512
>>>>>Begin Spectral Data<<<<<
898.623	3007.78
900.238	3014.86
901.852	3015.05
903.467	3021.13
905.081	3024.46
906.696	3027.54
908.31	3030.09
909.925	3038.03
911.54	3041.68
913.154	3050.25
914.769	3055.35
916.384	3063.53
917.998	3065.52
919.613	3073.4
921.228	3077.74
922.842	3083.22
924.457	3085.55
926.072	3092.25
927.686	3093.08
929.301	3095
930.916	3095.16
932.53	3098.35
934.145	3089.85
935.76	3093.01
937.374	3091.19
938.989	3090.01
940.604	3087.08
942.218	3082.15
943.833	3077.14
945.448	3077.28
947.062	3071.97
948.677	3069.03
950.291	3063.21
951.906	3059.61
953.521	3057.11
955.135	3054.57
956.75	3049.86
958.364	3052.54
959.979	3051.08
961.593	3053.02
963.208	3045
964.822	3046.6
966.437	3051.1
968.051	3051.89
969.666	3051.89
971.28	3056.51
972.895	3054.38
974.509	3058.82
976.123	3059.49
977.738	3063.28
979.352	3065.17
980.966	3066.35
982.58	3070
984.194	3071.55
985.809	3070.6
987.423	3079.96
989.037	3079.04
990.651	3082.04
992.265	3085.02
993.879	3088.55
995.493	3088.23
997.107	3093.64
998.721	3095.97
1000.335	3102.25
1001.948	3101.31
1003.562	3107.04
1005.176	3109.69
1006.79	3112.42
1008.403	3113.67
1010.017	3116.49
1011.63	3120.09
1013.244	3127.76
1014.857	3126.19
1016.471	3132.71
1018.084	3135.45
1019.697	3140.79
1021.311	3144.81
1022.924	3150.66
1024.537	3151.74
1026.15	3160.01
1027.763	3166.16
1029.376	3173.92
1030.989	3179.12
1032.602	3185.7
1034.215	3191.41
1035.828	3196.68
1037.44	3203.75
1039.053	3211.86
1040.666	3213.73
1042.278	3218.1
1043.89	3223.66
1045.503	3228.26
1047.115	3231.8
1048.727	3235.91
1050.34	3237.62
1051.952	3238.66
1053.564	3243.32
1055.176	3247
1056.788	3248.06
1058.4	3252.87
1060.011	3254.67
1061.623	3255.71
1063.235	3257.21
1064.846	3259.98
1066.458	3262.22
1068.069	3264.95
1069.68	3264.79
1071.292	3263.73
1072.903	3268.16
1074.514	3270.24
1076.125	3272.94
1077.736	3270.13
1079.347	3267.61
1080.957	3269.48
1082.568	3265.74
1084.179	3266.82
1085.789	3260.77
1087.399	3261.48
1089.01	3258.06
1090.62	3255.57
1092.23	3250.3
1093.84	3251.23
1095.45	3248.18
1097.06	3245.01
1098.67	3241.48
1100.279	3235.95
1101.889	3233.71
1103.498	3231.13
1105.108	3227.52
1106.717	3221.7
1108.326	3220.06
1109.935	3214.88
1111.544	3212.16
1113.153	3204.23
1114.762	3202.15
1116.371	3199.38
1117.979	3194.85
1119.588	3190.86
1121.196	3182.65
1122.804	3176.95
1124.412	3173.48
1126.02	3167.59
1127.628	3159.51
1129.236	3151.67
1130.844	3151.49
1132.451	3139.98
1134.059	3138.16
1135.666	3130
1137.273	3132.08
1138.88	3127.02
1140.487	3124.04
1142.094	3118.7
1143.701	3114.59
1145.307	3113.83
1146.914	3114.01
1148.52	3110.96
1150.126	3109.39
1151.733	3110.73
1153.339	3114.98
1154.944	3112.35
1156.55	3117.66
1158.156	3119.7
1159.761	3119.1
1161.367	3117.92
1162.972	3116.93
1164.577	3116.21
1166.182	3118.61
1167.787	3120.74
1169.391	3123.42
1170.996	3122.22
1172.6	3123.26
1174.205	3126.47
1175.809	3125.5
1177.413	3124.73
1179.017	3128.64
1180.62	3125.75
1182.224	3125.03
1183.827	3126.37
1185.431	3130
1187.034	3131.71
1188.637	3131.46
1190.24	3132.64
1191.842	3131.11
1193.445	3130.44
1195.047	3129.29
1196.649	3129.72
1198.252	3129.47
1199.854	3121.06
1201.455	3118.61
1203.057	3115.72
1204.658	3116.19
1206.26	3118.33
1207.861	3115.93
1209.462	3113.23
1211.063	3113.46
1212.664	3110.85
1214.264	3109.62
1215.864	3112.86
1217.465	3112.65
1219.065	3115.91
1220.665	3115.42
1222.264	3113.04
1223.864	3124.6
1225.463	3123.3
1227.062	3123.69
1228.661	3123.21
1230.26	3122.68
1231.859	3123.49
1233.458	3123.63
1235.056	3124.06
1236.654	3125.54
1238.252	3125.57
1239.85	3123.74
1241.448	3121.43
1243.045	3118.94
1244.642	3116.6
1246.24	3114.59
1247.837	3113.92
1249.433	3116.07
1251.03	3117.76
1252.626	3117.69
1254.223	3114.89
1255.819	3115.26
1257.414	3116.19
1259.01	3112.81
1260.606	3111.01
1262.201	3108.89
1263.796	3108.19
1265.391	3107.87
1266.986	3108.75
1268.58	3109.99
1270.174	3112.91
1271.769	3108.22
1273.362	3106.25
1274.956	3105.63
1276.55	3106
1278.143	3106.67
1279.736	3104.36
1281.329	3103.96
1282.922	3105.26
1284.515	3108.01
1286.107	3108.45
1287.699	3108.65
1289.291	3108.95
1290.883	3110.32
1292.474	3113.37
1294.066	3108.58
1295.657	3114.66
1297.248	3114.78
1298.838	3113.16
1300.429	3114.38
1302.019	3114.64
1303.609	3115.79
1305.199	3115.05
1306.789	3114.64
1308.378	3114.92
1309.967	3112.93
1311.556	3113.83
1313.145	3113.99
1314.734	3110.39
1316.322	3107.29
1317.91	3112.17
1319.498	3110.85
1321.086	3109.9
1322.673	3109.42
1324.261	3107.5
1325.848	3106.67
1327.434	3107.15
1329.021	3106.23
1330.607	3107.11
1332.193	3105.95
1333.779	3109.92
1335.365	3108.52
1336.95	3108.19
1338.535	3110.02
1340.12	3111.31
1341.705	3110.39
1343.29	3104.87
1344.874	3108.12
1346.458	3108.93
1348.042	3107.85
1349.625	3106.23
1351.208	3109.58
1352.791	3109.51
1354.374	3107.96
1355.957	3108.95
1357.539	3107.96
1359.121	3108.1
1360.703	3108.84
1362.285	3109.56
1363.866	3107.11
1365.447	3105.58
1367.028	3110.71
1368.609	3107.59
1370.189	3105.74
1371.769	3104.93
1373.349	3106.55
1374.928	3101.58
1376.508	3101.17
1378.087	3098.1
1379.666	3096.57
1381.244	3095.76
1382.822	3096.16
1384.401	3097.7
1385.978	3098.14
1387.556	3096.96
1389.133	3097.96
1390.71	3096.34
1392.287	3097.4
1393.863	3098.88
1395.44	3103.16
1397.015	3101.63
1398.591	3103.59
1400.167	3101.91
1401.742	3109.58
1403.317	3107.98
1404.891	3108.05
1406.465	3109.42
1408.04	3104.8
1409.613	3100.66
1411.187	3104.66
1412.76	3106.23
1414.333	3108.26
1415.906	3107.87
1417.478	3108.72
1419.05	3101.88
1420.622	3105.23
1422.194	3108.22
1423.765	3110.46
1425.336	3106.81
1426.907	3110.53
1428.477	3109.3
1430.047	3109.42
1431.617	3110.8
1433.187	3115.28
1434.756	3113
1436.325	3110.85
1437.894	3107.52
1439.462	3108.19
1441.03	3106.07
1442.598	3111.38
1444.166	3109.97
1445.733	3106.94
1447.3	3105.14
1448.866	3106.34
1450.433	3104.45
1451.999	3104.8
1453.564	3101.7
1455.13	3103.25
1456.695	3099.09
1458.26	3098.79
1459.825	3098.12
1461.389	3100.54
1462.953	3097.1
1464.516	3097.31
1466.08	3095.35
1467.643	3097.03
1469.205	3096.64
1470.768	3099.07
1472.33	3098.23
1473.892	3097.1
1475.453	3096.2
1477.014	3097.96
1478.575	3099.55
1480.136	3101.84
1481.696	3102.35
1483.256	3102.42
1484.815	3100.18
1486.375	3103.92
1487.934	3105.26
1489.492	3107.98
1491.05	3103.43
1492.608	3107.57
1494.166	3105.37
1495.723	3104.26
1497.28	3104.84
1498.837	3105.47
1500.393	3103.29
1501.95	3103.71
1503.505	3101.86
1505.061	3099.39
1506.616	3102.49
1508.17	3103.53
1509.725	3102.76
1511.279	3101.08
1512.832	3095.83
1514.386	3100.22
1515.939	3098.33
1517.492	3097.73
1519.044	3095.25
1520.596	3098.37
1522.148	3098.65
1523.699	3099.94
1525.25	3096.89
1526.801	3098.63
1528.351	3101.72
1529.901	3100.24
1531.451	3098.42
1533	3098.35
1534.549	3098.05
1536.097	3101.1
1537.646	3097.66
1539.193	3095.39
1540.741	3094.05
1542.288	3096.11
1543.835	3089.73
1545.382	3089.78
1546.928	3087.7
1548.473	3088.58
1550.019	3082.32
1551.564	3074.85
1553.109	3072.13
1554.653	3068.55
1556.197	3066.95
1557.741	3061.2
1559.284	3060.39
1560.827	3058.27
1562.369	3057.39
1563.911	3054.27
1565.453	3051.17
1566.995	3051.36
1568.536	3046.55
1570.076	3045.05
1571.617	3039.99
1573.157	3039.64
1574.696	3042.53
1576.236	3040.8
1577.774	3038.7
1579.313	3038.4
1580.851	3039.92
1582.389	3039.67
1583.926	3035.39
1585.463	3032.9
1587	3033.22
1588.536	3034.33
1590.072	3031.26
1591.607	3034.33
1593.142	3030.49
1594.677	3032.62
1596.211	3031.14
1597.745	3031.26
1599.279	3028.23
1600.812	3031.95
1602.345	3027.54
1603.877	3027.72
1605.409	3020.28
1606.941	3023.15
1608.472	3023.86
1610.003	3020.05
1611.533	3020.63
1613.063	3021.62
1614.593	3013.86
1616.122	3016.75
1617.651	3013.74
1619.179	3016.36
1620.707	3012.91
1622.235	3016.49
1623.762	3011.8
1625.289	3011.9
1626.816	3008.69
1628.342	3013.88
1629.867	3009.05
1631.392	3004.8
1632.917	3005.03
1634.442	3001.43
1635.966	2998.94
1637.489	3000.3
1639.013	2997.11
1640.535	2995.15
1642.058	2992.26
1643.58	2989.07
1645.101	2984.47
1646.622	2985.47
1648.143	2978.6
1649.663	2979.99
1651.183	2972.5
1652.703	2975.14
1654.222	2971.23
1655.741	2964.88
1657.259	2961.07
1658.777	2959.61
1660.294	2954.97
1661.811	2950.07
1663.327	2947.53
1664.844	2944
1666.359	2940.62
1667.874	2938.45
1669.389	2933.58
1670.904	2936.12
1672.418	2927.8
1673.931	2929.44
1675.444	2924.13
1676.957	2924.4
1678.469	2926.25
1679.981	2925.7
1681.492	2924.52
1683.003	2923.94
1684.514	2920.36
1686.024	2921.35
1687.533	2917.43
1689.043	2919.51
1690.551	2912.76
1692.06	2914.82
1693.568	2912.09
1695.075	2916.52
1696.582	2913.43
1698.088	2913.18
1699.595	2912.18
1701.1	2912.94
1702.605	2910.01
1704.11	2907.43
1705.614	2907.63
